Thayer School of Engineering        Instron 4442 Mechanical Testing System
7/9/2018 2:49:55 AM

  Force (N)	Extension (mm)	Not Used	Not Used	Not Used	     Hour	    Minute	    Second
    0.1602 	    2.0520 	    2.0000 	   50.0000 	   23.7794 
    0.4501 	    2.1100 	    2.0000 	   50.0000 	   23.8084 
    0.3891 	    2.2420 	    2.0000 	   50.0000 	   23.8745 
    0.6332 	    2.3540 	    2.0000 	   50.0000 	   23.9305 
    0.3433 	    2.4540 	    2.0000 	   50.0000 	   23.9805 
    0.3433 	    2.5540 	    2.0000 	   50.0000 	   24.0305 
    0.3738 	    2.6620 	    2.0000 	   50.0000 	   24.0845 
    0.4807 	    2.7200 	    2.0000 	   50.0000 	   24.1135 
    0.3891 	    2.8220 	    2.0000 	   50.0000 	   24.1645 
    0.0839 	    2.9180 	    2.0000 	   50.0000 	   24.2125 
    0.3586 	    3.0140 	    2.0000 	   50.0000 	   24.2605 
    0.2060 	    3.1120 	    2.0000 	   50.0000 	   24.3095 
    0.3738 	    3.2080 	    2.0000 	   50.0000 	   24.3575 
    0.6027 	    3.3060 	    2.0000 	   50.0000 	   24.4065 
    0.2670 	    3.4040 	    2.0000 	   50.0000 	   24.4555 
    0.4349 	    3.5000 	    2.0000 	   50.0000 	   24.5035 
    0.3281 	    3.5980 	    2.0000 	   50.0000 	   24.5525 
    0.4044 	    3.7020 	    2.0000 	   50.0000 	   24.6045 
    0.3738 	    3.8100 	    2.0000 	   50.0000 	   24.6585 
    0.3281 	    3.9120 	    2.0000 	   50.0000 	   24.7095 
    0.3433 	    3.9720 	    2.0000 	   50.0000 	   24.7395 
    0.4196 	    4.0820 	    2.0000 	   50.0000 	   24.7945 
    0.1907 	    4.1860 	    2.0000 	   50.0000 	   24.8465 
    0.3738 	    4.2860 	    2.0000 	   50.0000 	   24.8965 
    0.3433 	    4.3900 	    2.0000 	   50.0000 	   24.9485 
    0.3128 	    4.5000 	    2.0000 	   50.0000 	   25.0035 
    0.5264 	    4.6080 	    2.0000 	   50.0000 	   25.0575 
    0.3891 	    4.7120 	    2.0000 	   50.0000 	   25.1095 
    0.2823 	    4.8180 	    2.0000 	   50.0000 	   25.1625 
    0.0839 	    4.9220 	    2.0000 	   50.0000 	   25.2145 
    0.4959 	    5.0320 	    2.0000 	   50.0000 	   25.2695 
    0.2518 	    5.1420 	    2.0000 	   50.0000 	   25.3245 
    0.2976 	    5.2400 	    2.0000 	   50.0000 	   25.3735 
    0.1602 	    5.3400 	    2.0000 	   50.0000 	   25.4235 
    0.3738 	    5.4400 	    2.0000 	   50.0000 	   25.4735 
    0.4196 	    5.5400 	    2.0000 	   50.0000 	   25.5235 
    0.5722 	    5.6380 	    2.0000 	   50.0000 	   25.5725 
    0.4807 	    5.6980 	    2.0000 	   50.0000 	   25.6026 
    0.2976 	    5.8100 	    2.0000 	   50.0000 	   25.6586 
    0.3738 	    5.9200 	    2.0000 	   50.0000 	   25.7136 
    0.2976 	    6.0260 	    2.0000 	   50.0000 	   25.7666 
    0.1144 	    6.1420 	    2.0000 	   50.0000 	   25.8246 
    0.4349 	    6.2440 	    2.0000 	   50.0000 	   25.8756 
    0.4196 	    6.3560 	    2.0000 	   50.0000 	   25.9316 
    0.1907 	    6.4520 	    2.0000 	   50.0000 	   25.9796 
    0.3433 	    6.5120 	    2.0000 	   50.0000 	   26.0096 
    0.5112 	    6.5680 	    2.0000 	   50.0000 	   26.0376 
    0.3891 	    6.6240 	    2.0000 	   50.0000 	   26.0656 
    0.4044 	    6.7320 	    2.0000 	   50.0000 	   26.1196 
    0.1297 	    6.8000 	    2.0000 	   50.0000 	   26.1536 
    0.3891 	    6.8680 	    2.0000 	   50.0000 	   26.1876 
    0.3281 	    6.9320 	    2.0000 	   50.0000 	   26.2196 
    0.5722 	    6.9980 	    2.0000 	   50.0000 	   26.2526 
    0.4959 	    7.0660 	    2.0000 	   50.0000 	   26.2866 
    0.3281 	    7.1320 	    2.0000 	   50.0000 	   26.3196 
    0.3586 	    7.2000 	    2.0000 	   50.0000 	   26.3536 
    0.3433 	    7.2680 	    2.0000 	   50.0000 	   26.3876 
    0.6485 	    7.3320 	    2.0000 	   50.0000 	   26.4196 
    0.5264 	    7.4000 	    2.0000 	   50.0000 	   26.4536 
    0.3433 	    7.5200 	    2.0000 	   50.0000 	   26.5136 
    0.3433 	    7.5820 	    2.0000 	   50.0000 	   26.5436 
    0.3738 	    7.6460 	    2.0000 	   50.0000 	   26.5766 
    0.5264 	    7.7080 	    2.0000 	   50.0000 	   26.6076 
    0.4196 	    7.7720 	    2.0000 	   50.0000 	   26.6396 
    0.2060 	    7.8380 	    2.0000 	   50.0000 	   26.6726 
    0.5570 	    7.9040 	    2.0000 	   50.0000 	   26.7056 
    0.3433 	    7.9680 	    2.0000 	   50.0000 	   26.7376 
    0.3128 	    8.0340 	    2.0000 	   50.0000 	   26.7706 
    0.3891 	    8.1000 	    2.0000 	   50.0000 	   26.8036 
    0.4044 	    8.1660 	    2.0000 	   50.0000 	   26.8366 
    0.3738 	    8.2300 	    2.0000 	   50.0000 	   26.8686 
    0.2823 	    8.3000 	    2.0000 	   50.0000 	   26.9036 
    0.5112 	    8.3700 	    2.0000 	   50.0000 	   26.9386 
    0.4044 	    8.4340 	    2.0000 	   50.0000 	   26.9706 
    0.3738 	    8.4980 	    2.0000 	   50.0000 	   27.0026 
    0.1144 	    8.5620 	    2.0000 	   50.0000 	   27.0346 
    0.0381 	    8.6220 	    2.0000 	   50.0000 	   27.0646 
    0.4959 	    8.6880 	    2.0000 	   50.0000 	   27.0976 
    0.4959 	    8.8060 	    2.0000 	   50.0000 	   27.1566 
    0.4501 	    8.8640 	    2.0000 	   50.0000 	   27.1856 
    0.3891 	    8.9340 	    2.0000 	   50.0000 	   27.2206 
    0.4196 	    8.9900 	    2.0000 	   50.0000 	   27.2486 
    0.3586 	    9.0580 	    2.0000 	   50.0000 	   27.2826 
    0.3433 	    9.1180 	    2.0000 	   50.0000 	   27.3126 
    0.3891 	    9.1840 	    2.0000 	   50.0000 	   27.3457 
    0.4501 	    9.2500 	    2.0000 	   50.0000 	   27.3787 
    0.4044 	    9.3100 	    2.0000 	   50.0000 	   27.4087 
    0.4654 	    9.3740 	    2.0000 	   50.0000 	   27.4407 
    0.3738 	    9.4420 	    2.0000 	   50.0000 	   27.4747 
    0.3891 	    9.5020 	    2.0000 	   50.0000 	   27.5047 
    0.4349 	    9.5680 	    2.0000 	   50.0000 	   27.5377 
    0.4501 	    9.6320 	    2.0000 	   50.0000 	   27.5697 
    0.4349 	    9.6960 	    2.0000 	   50.0000 	   27.6017 
    0.5417 	    9.7640 	    2.0000 	   50.0000 	   27.6357 
    0.5264 	    9.8220 	    2.0000 	   50.0000 	   27.6647 
    0.3128 	    9.8920 	    2.0000 	   50.0000 	   27.6997 
    0.6027 	    9.9580 	    2.0000 	   50.0000 	   27.7327 
    0.3891 	   10.0180 	    2.0000 	   50.0000 	   27.7627 
    0.3586 	   10.0860 	    2.0000 	   50.0000 	   27.7967 
    0.3891 	   10.1520 	    2.0000 	   50.0000 	   27.8297 
    0.4654 	   10.2120 	    2.0000 	   50.0000 	   27.8597 
    0.4349 	   10.2760 	    2.0000 	   50.0000 	   27.8917 
    0.5112 	   10.3380 	    2.0000 	   50.0000 	   27.9227 
    0.5875 	   10.3980 	    2.0000 	   50.0000 	   27.9527 
    0.5570 	   10.4600 	    2.0000 	   50.0000 	   27.9837 
    0.4501 	   10.5220 	    2.0000 	   50.0000 	   28.0147 
    0.5112 	   10.5920 	    2.0000 	   50.0000 	   28.0497 
    0.5112 	   10.6560 	    2.0000 	   50.0000 	   28.0817 
    0.3128 	   10.7160 	    2.0000 	   50.0000 	   28.1117 
    0.3281 	   10.7820 	    2.0000 	   50.0000 	   28.1447 
    0.0839 	   10.8440 	    2.0000 	   50.0000 	   28.1757 
    0.4807 	   10.9020 	    2.0000 	   50.0000 	   28.2047 
    0.4501 	   10.9700 	    2.0000 	   50.0000 	   28.2387 
    0.5112 	   11.0320 	    2.0000 	   50.0000 	   28.2697 
    0.3433 	   11.0960 	    2.0000 	   50.0000 	   28.3017 
    0.3738 	   11.1580 	    2.0000 	   50.0000 	   28.3327 
    0.3128 	   11.2180 	    2.0000 	   50.0000 	   28.3627 
    0.3891 	   11.2780 	    2.0000 	   50.0000 	   28.3927 
    0.4807 	   11.3420 	    2.0000 	   50.0000 	   28.4247 
    0.3891 	   11.4020 	    2.0000 	   50.0000 	   28.4547 
    0.4501 	   11.4640 	    2.0000 	   50.0000 	   28.4857 
    0.3128 	   11.5320 	    2.0000 	   50.0000 	   28.5197 
    0.3281 	   11.5960 	    2.0000 	   50.0000 	   28.5517 
    0.3281 	   11.6600 	    2.0000 	   50.0000 	   28.5837 
    0.5570 	   11.7200 	    2.0000 	   50.0000 	   28.6137 
    0.5722 	   11.8100 	    2.0000 	   50.0000 	   28.6587 
    0.4044 	   11.8700 	    2.0000 	   50.0000 	   28.6887 
    0.4501 	   11.9340 	    2.0000 	   50.0000 	   28.7207 
    0.4959 	   11.9960 	    2.0000 	   50.0000 	   28.7517 
    0.2976 	   12.0560 	    2.0000 	   50.0000 	   28.7817 
    0.4654 	   12.1120 	    2.0000 	   50.0000 	   28.8097 
    0.4349 	   12.1760 	    2.0000 	   50.0000 	   28.8417 
    0.4196 	   12.2340 	    2.0000 	   50.0000 	   28.8707 
    0.4044 	   12.2960 	    2.0000 	   50.0000 	   28.9017 
    0.5112 	   12.3640 	    2.0000 	   50.0000 	   28.9357 
    0.5570 	   12.4240 	    2.0000 	   50.0000 	   28.9657 
    0.4044 	   12.4820 	    2.0000 	   50.0000 	   28.9947 
    0.5417 	   12.5500 	    2.0000 	   50.0000 	   29.0287 
    0.4196 	   12.6100 	    2.0000 	   50.0000 	   29.0588 
    0.4654 	   12.6660 	    2.0000 	   50.0000 	   29.0868 
    0.3891 	   12.7360 	    2.0000 	   50.0000 	   29.1218 
    0.4044 	   12.7960 	    2.0000 	   50.0000 	   29.1518 
    0.4807 	   12.8580 	    2.0000 	   50.0000 	   29.1828 
    0.3281 	   12.9200 	    2.0000 	   50.0000 	   29.2138 
    0.4349 	   12.9900 	    2.0000 	   50.0000 	   29.2488 
    0.5417 	   13.0500 	    2.0000 	   50.0000 	   29.2788 
    0.1755 	   13.1100 	    2.0000 	   50.0000 	   29.3088 
    0.3281 	   13.1760 	    2.0000 	   50.0000 	   29.3418 
    0.3738 	   13.2360 	    2.0000 	   50.0000 	   29.3718 
    0.1297 	   13.3040 	    2.0000 	   50.0000 	   29.4058 
    0.3891 	   13.3720 	    2.0000 	   50.0000 	   29.4398 
    0.4349 	   13.4320 	    2.0000 	   50.0000 	   29.4698 
    0.4654 	   13.4920 	    2.0000 	   50.0000 	   29.4998 
    0.5264 	   13.5580 	    2.0000 	   50.0000 	   29.5328 
    0.5875 	   13.6200 	    2.0000 	   50.0000 	   29.5638 
    0.3738 	   13.6800 	    2.0000 	   50.0000 	   29.5938 
    0.2060 	   13.7500 	    2.0000 	   50.0000 	   29.6288 
    0.4196 	   13.8120 	    2.0000 	   50.0000 	   29.6598 
    0.4654 	   13.8700 	    2.0000 	   50.0000 	   29.6888 
    0.4959 	   13.9400 	    2.0000 	   50.0000 	   29.7238 
    0.4959 	   14.0000 	    2.0000 	   50.0000 	   29.7538 
    0.4044 	   14.0660 	    2.0000 	   50.0000 	   29.7868 
    0.5112 	   14.1340 	    2.0000 	   50.0000 	   29.8208 
    0.3586 	   14.1980 	    2.0000 	   50.0000 	   29.8528 
    0.5417 	   14.2600 	    2.0000 	   50.0000 	   29.8838 
    0.4349 	   14.3200 	    2.0000 	   50.0000 	   29.9138 
    0.4349 	   14.3860 	    2.0000 	   50.0000 	   29.9468 
    0.4044 	   14.4440 	    2.0000 	   50.0000 	   29.9758 
    0.4349 	   14.5060 	    2.0000 	   50.0000 	   30.0068 
    0.5875 	   14.5720 	    2.0000 	   50.0000 	   30.0398 
    0.4654 	   14.6400 	    2.0000 	   50.0000 	   30.0738 
    0.4959 	   14.7020 	    2.0000 	   50.0000 	   30.1048 
    0.3891 	   14.7660 	    2.0000 	   50.0000 	   30.1368 
    0.4501 	   14.8320 	    2.0000 	   50.0000 	   30.1698 
    0.4196 	   14.9020 	    2.0000 	   50.0000 	   30.2048 
    0.3738 	   14.9680 	    2.0000 	   50.0000 	   30.2378 
    0.3738 	   15.0280 	    2.0000 	   50.0000 	   30.2678 
    0.2823 	   15.0880 	    2.0000 	   50.0000 	   30.2978 
    0.4959 	   15.1600 	    2.0000 	   50.0000 	   30.3338 
    0.4654 	   15.2160 	    2.0000 	   50.0000 	   30.3618 
    0.6027 	   15.2800 	    2.0000 	   50.0000 	   30.3938 
    0.5570 	   15.3460 	    2.0000 	   50.0000 	   30.4268 
    0.4044 	   15.4080 	    2.0000 	   50.0000 	   30.4578 
    0.4196 	   15.4660 	    2.0000 	   50.0000 	   30.4868 
    0.4959 	   15.5320 	    2.0000 	   50.0000 	   30.5198 
    0.5264 	   15.5960 	    2.0000 	   50.0000 	   30.5518 
    0.4501 	   15.6560 	    2.0000 	   50.0000 	   30.5818 
    0.4349 	   15.7200 	    2.0000 	   50.0000 	   30.6138 
    0.5570 	   15.8100 	    2.0000 	   50.0000 	   30.6588 
    0.4196 	   15.8720 	    2.0000 	   50.0000 	   30.6898 
    0.4196 	   15.9420 	    2.0000 	   50.0000 	   30.7248 
    0.4654 	   16.0080 	    2.0000 	   50.0000 	   30.7578 
    0.5112 	   16.0680 	    2.0000 	   50.0000 	   30.7878 
    0.5264 	   16.1380 	    2.0000 	   50.0000 	   30.8229 
    0.5264 	   16.2000 	    2.0000 	   50.0000 	   30.8539 
    0.3891 	   16.2640 	    2.0000 	   50.0000 	   30.8859 
    0.4959 	   16.3320 	    2.0000 	   50.0000 	   30.9199 
    0.3891 	   16.3960 	    2.0000 	   50.0000 	   30.9519 
    0.5112 	   16.4580 	    2.0000 	   50.0000 	   30.9829 
    0.4959 	   16.5160 	    2.0000 	   50.0000 	   31.0119 
    0.4044 	   16.5820 	    2.0000 	   50.0000 	   31.0449 
    0.5417 	   16.6420 	    2.0000 	   50.0000 	   31.0749 
    0.6180 	   16.7020 	    2.0000 	   50.0000 	   31.1049 
    0.5264 	   16.7700 	    2.0000 	   50.0000 	   31.1389 
    0.3891 	   16.8340 	    2.0000 	   50.0000 	   31.1709 
    0.5112 	   16.8960 	    2.0000 	   50.0000 	   31.2019 
    0.5264 	   16.9620 	    2.0000 	   50.0000 	   31.2349 
    0.2365 	   17.0260 	    2.0000 	   50.0000 	   31.2669 
    0.5264 	   17.0900 	    2.0000 	   50.0000 	   31.2989 
    0.6180 	   17.1620 	    2.0000 	   50.0000 	   31.3349 
    0.5112 	   17.2260 	    2.0000 	   50.0000 	   31.3669 
    0.5264 	   17.2880 	    2.0000 	   50.0000 	   31.3979 
    0.4501 	   17.3480 	    2.0000 	   50.0000 	   31.4279 
    0.4959 	   17.4120 	    2.0000 	   50.0000 	   31.4599 
    0.5112 	   17.4740 	    2.0000 	   50.0000 	   31.4909 
    0.3738 	   17.5380 	    2.0000 	   50.0000 	   31.5229 
    0.5264 	   17.6020 	    2.0000 	   50.0000 	   31.5549 
    0.5264 	   17.6740 	    2.0000 	   50.0000 	   31.5909 
    0.4959 	   17.7360 	    2.0000 	   50.0000 	   31.6219 
    0.5417 	   17.8000 	    2.0000 	   50.0000 	   31.6539 
    0.4196 	   17.8600 	    2.0000 	   50.0000 	   31.6839 
    0.4501 	   17.9340 	    2.0000 	   50.0000 	   31.7209 
    0.3128 	   17.9940 	    2.0000 	   50.0000 	   31.7509 
    0.5570 	   18.0560 	    2.0000 	   50.0000 	   31.7819 
    0.6332 	   18.1160 	    2.0000 	   50.0000 	   31.8119 
    0.5112 	   18.1860 	    2.0000 	   50.0000 	   31.8469 
    0.5875 	   18.2460 	    2.0000 	   50.0000 	   31.8769 
    0.4349 	   18.3080 	    2.0000 	   50.0000 	   31.9079 
    0.4654 	   18.3720 	    2.0000 	   50.0000 	   31.9399 
    0.6180 	   18.4420 	    2.0000 	   50.0000 	   31.9749 
    0.4349 	   18.5040 	    2.0000 	   50.0000 	   32.0059 
    0.5112 	   18.5720 	    2.0000 	   50.0000 	   32.0399 
    0.5570 	   18.6440 	    2.0000 	   50.0000 	   32.0759 
    0.6027 	   18.7040 	    2.0000 	   50.0000 	   32.1059 
    0.6638 	   18.7640 	    2.0000 	   50.0000 	   32.1359 
    0.1602 	   18.8240 	    2.0000 	   50.0000 	   32.1659 
    0.5570 	   18.8960 	    2.0000 	   50.0000 	   32.2019 
    0.5722 	   18.9640 	    2.0000 	   50.0000 	   32.2359 
    0.5722 	   19.0280 	    2.0000 	   50.0000 	   32.2679 
    0.4044 	   19.0920 	    2.0000 	   50.0000 	   32.2999 
    0.5264 	   19.1620 	    2.0000 	   50.0000 	   32.3349 
    0.2060 	   19.2240 	    2.0000 	   50.0000 	   32.3659 
    0.4654 	   19.2920 	    2.0000 	   50.0000 	   32.3999 
    0.4807 	   19.3540 	    2.0000 	   50.0000 	   32.4309 
    0.5112 	   19.4200 	    2.0000 	   50.0000 	   32.4639 
    0.5417 	   19.4840 	    2.0000 	   50.0000 	   32.4959 
    0.4501 	   19.5460 	    2.0000 	   50.0000 	   32.5269 
    0.5722 	   19.6060 	    2.0000 	   50.0000 	   32.5569 
    0.5722 	   19.6780 	    2.0000 	   50.0000 	   32.5920 
    0.4807 	   19.7380 	    2.0000 	   50.0000 	   32.6230 
    0.7858 	   19.8100 	    2.0000 	   50.0000 	   32.6590 
    0.4959 	   19.8740 	    2.0000 	   50.0000 	   32.6910 
    0.2670 	   19.9400 	    2.0000 	   50.0000 	   32.7240 
    0.5570 	   20.0020 	    2.0000 	   50.0000 	   32.7550 
    0.7401 	   20.0640 	    2.0000 	   50.0000 	   32.7860 
    0.5264 	   20.1300 	    2.0000 	   50.0000 	   32.8190 
    0.4654 	   20.1940 	    2.0000 	   50.0000 	   32.8510 
    0.4349 	   20.2600 	    2.0000 	   50.0000 	   32.8840 
    0.3738 	   20.3200 	    2.0000 	   50.0000 	   32.9140 
    0.4959 	   20.3780 	    2.0000 	   50.0000 	   32.9430 
    0.5417 	   20.4420 	    2.0000 	   50.0000 	   32.9750 
    0.4654 	   20.5020 	    2.0000 	   50.0000 	   33.0050 
    0.4959 	   20.5700 	    2.0000 	   50.0000 	   33.0390 
    0.4044 	   20.6400 	    2.0000 	   50.0000 	   33.0740 
    0.5417 	   20.7060 	    2.0000 	   50.0000 	   33.1070 
    0.6027 	   20.7700 	    2.0000 	   50.0000 	   33.1390 
    0.5112 	   20.8340 	    2.0000 	   50.0000 	   33.1710 
    0.6027 	   20.8980 	    2.0000 	   50.0000 	   33.2030 
    0.4654 	   20.9620 	    2.0000 	   50.0000 	   33.2350 
    0.4044 	   21.0240 	    2.0000 	   50.0000 	   33.2660 
    0.2518 	   21.0900 	    2.0000 	   50.0000 	   33.2990 
    0.4654 	   21.1560 	    2.0000 	   50.0000 	   33.3320 
    0.5112 	   21.2180 	    2.0000 	   50.0000 	   33.3630 
    0.5264 	   21.2800 	    2.0000 	   50.0000 	   33.3940 
    0.6180 	   21.3440 	    2.0000 	   50.0000 	   33.4260 
    0.5570 	   21.4080 	    2.0000 	   50.0000 	   33.4580 
    0.5875 	   21.4720 	    2.0000 	   50.0000 	   33.4900 
    0.4044 	   21.5400 	    2.0000 	   50.0000 	   33.5240 
    0.3738 	   21.6020 	    2.0000 	   50.0000 	   33.5550 
    0.5722 	   21.6740 	    2.0000 	   50.0000 	   33.5910 
    0.6943 	   21.7360 	    2.0000 	   50.0000 	   33.6220 
    0.5570 	   21.7960 	    2.0000 	   50.0000 	   33.6520 
    0.5112 	   21.8560 	    2.0000 	   50.0000 	   33.6820 
    0.5570 	   21.9280 	    2.0000 	   50.0000 	   33.7180 
    0.5875 	   21.9920 	    2.0000 	   50.0000 	   33.7500 
    0.4959 	   22.0560 	    2.0000 	   50.0000 	   33.7820 
    0.4654 	   22.1120 	    2.0000 	   50.0000 	   33.8100 
    0.3738 	   22.1820 	    2.0000 	   50.0000 	   33.8450 
    0.5722 	   22.2400 	    2.0000 	   50.0000 	   33.8740 
    0.4654 	   22.3020 	    2.0000 	   50.0000 	   33.9050 
    0.4654 	   22.3640 	    2.0000 	   50.0000 	   33.9360 
    0.6943 	   22.4260 	    2.0000 	   50.0000 	   33.9670 
    0.1297 	   22.4840 	    2.0000 	   50.0000 	   33.9960 
    0.6638 	   22.5500 	    2.0000 	   50.0000 	   34.0290 
    0.5722 	   22.6120 	    2.0000 	   50.0000 	   34.0600 
    0.4501 	   22.6840 	    2.0000 	   50.0000 	   34.0960 
    0.5722 	   22.7500 	    2.0000 	   50.0000 	   34.1290 
    0.4196 	   22.8120 	    2.0000 	   50.0000 	   34.1600 
    0.6180 	   22.8760 	    2.0000 	   50.0000 	   34.1920 
    0.6180 	   22.9400 	    2.0000 	   50.0000 	   34.2240 
    0.4196 	   23.0060 	    2.0000 	   50.0000 	   34.2570 
    0.5112 	   23.0720 	    2.0000 	   50.0000 	   34.2901 
    0.5570 	   23.1460 	    2.0000 	   50.0000 	   34.3270 
    0.3738 	   23.2060 	    2.0000 	   50.0000 	   34.3571 
    0.5875 	   23.2680 	    2.0000 	   50.0000 	   34.3881 
    0.5570 	   23.3300 	    2.0000 	   50.0000 	   34.4191 
    0.5722 	   23.3960 	    2.0000 	   50.0000 	   34.4521 
    0.5722 	   23.4580 	    2.0000 	   50.0000 	   34.4831 
    0.4654 	   23.5220 	    2.0000 	   50.0000 	   34.5151 
    0.5264 	   23.5840 	    2.0000 	   50.0000 	   34.5461 
    0.5875 	   23.6560 	    2.0000 	   50.0000 	   34.5821 
    0.5570 	   23.7160 	    2.0000 	   50.0000 	   34.6121 
    0.4349 	   23.8080 	    2.0000 	   50.0000 	   34.6581 
    0.8011 	   23.8660 	    2.0000 	   50.0000 	   34.6871 
    0.5112 	   23.9280 	    2.0000 	   50.0000 	   34.7181 
    0.6485 	   23.9960 	    2.0000 	   50.0000 	   34.7521 
    0.5264 	   24.0600 	    2.0000 	   50.0000 	   34.7841 
    0.2823 	   24.1240 	    2.0000 	   50.0000 	   34.8161 
    0.5112 	   24.1960 	    2.0000 	   50.0000 	   34.8521 
    0.5264 	   24.2600 	    2.0000 	   50.0000 	   34.8841 
    0.5875 	   24.3240 	    2.0000 	   50.0000 	   34.9161 
    0.6485 	   24.3860 	    2.0000 	   50.0000 	   34.9471 
    0.7248 	   24.4460 	    2.0000 	   50.0000 	   34.9771 
    0.5264 	   24.5100 	    2.0000 	   50.0000 	   35.0091 
    0.6180 	   24.5720 	    2.0000 	   50.0000 	   35.0401 
    0.7401 	   24.6440 	    2.0000 	   50.0000 	   35.0761 
    0.5264 	   24.7080 	    2.0000 	   50.0000 	   35.1081 
    0.5570 	   24.7740 	    2.0000 	   50.0000 	   35.1411 
    0.6485 	   24.8400 	    2.0000 	   50.0000 	   35.1741 
    0.5264 	   24.9060 	    2.0000 	   50.0000 	   35.2071 
    0.5875 	   24.9720 	    2.0000 	   50.0000 	   35.2401 
    0.5112 	   25.0380 	    2.0000 	   50.0000 	   35.2731 
    0.4807 	   25.1040 	    2.0000 	   50.0000 	   35.3061 
    0.3738 	   25.1740 	    2.0000 	   50.0000 	   35.3411 
    0.2365 	   25.2420 	    2.0000 	   50.0000 	   35.3751 
    0.5570 	   25.3100 	    2.0000 	   50.0000 	   35.4091 
    0.4044 	   25.3720 	    2.0000 	   50.0000 	   35.4401 
    0.6180 	   25.4360 	    2.0000 	   50.0000 	   35.4721 
    0.4959 	   25.5020 	    2.0000 	   50.0000 	   35.5051 
    0.6790 	   25.5640 	    2.0000 	   50.0000 	   35.5361 
    0.5722 	   25.6360 	    2.0000 	   50.0000 	   35.5721 
    0.4654 	   25.6980 	    2.0000 	   50.0000 	   35.6031 
    0.3433 	   25.7640 	    2.0000 	   50.0000 	   35.6361 
    0.4959 	   25.8260 	    2.0000 	   50.0000 	   35.6671 
    0.5875 	   25.8900 	    2.0000 	   50.0000 	   35.6991 
    0.6332 	   25.9560 	    2.0000 	   50.0000 	   35.7321 
    0.5570 	   26.0220 	    2.0000 	   50.0000 	   35.7651 
    0.4959 	   26.0900 	    2.0000 	   50.0000 	   35.7991 
    0.4349 	   26.1600 	    2.0000 	   50.0000 	   35.8341 
    0.4349 	   26.2260 	    2.0000 	   50.0000 	   35.8671 
    0.6638 	   26.2920 	    2.0000 	   50.0000 	   35.9001 
    0.5112 	   26.3580 	    2.0000 	   50.0000 	   35.9331 
    0.5722 	   26.4220 	    2.0000 	   50.0000 	   35.9651 
    0.5722 	   26.4860 	    2.0000 	   50.0000 	   35.9971 
    0.6180 	   26.5520 	    2.0000 	   50.0000 	   36.0301 
    0.4501 	   26.6180 	    2.0000 	   50.0000 	   36.0631 
    0.4959 	   26.6860 	    2.0000 	   50.0000 	   36.0972 
    0.7401 	   26.7480 	    2.0000 	   50.0000 	   36.1282 
    0.5264 	   26.8120 	    2.0000 	   50.0000 	   36.1602 
    0.7706 	   26.8720 	    2.0000 	   50.0000 	   36.1902 
    0.6485 	   26.9380 	    2.0000 	   50.0000 	   36.2232 
    0.4654 	   27.0040 	    2.0000 	   50.0000 	   36.2562 
    0.3433 	   27.0680 	    2.0000 	   50.0000 	   36.2882 
    0.2823 	   27.1380 	    2.0000 	   50.0000 	   36.3232 
    0.1907 	   27.2020 	    2.0000 	   50.0000 	   36.3552 
    0.6943 	   27.2700 	    2.0000 	   50.0000 	   36.3892 
    0.5112 	   27.3380 	    2.0000 	   50.0000 	   36.4232 
    0.5264 	   27.4040 	    2.0000 	   50.0000 	   36.4562 
    0.6332 	   27.4680 	    2.0000 	   50.0000 	   36.4882 
    0.7095 	   27.5340 	    2.0000 	   50.0000 	   36.5212 
    0.7095 	   27.6000 	    2.0000 	   50.0000 	   36.5542 
    0.5570 	   27.6740 	    2.0000 	   50.0000 	   36.5912 
    0.5417 	   27.7360 	    2.0000 	   50.0000 	   36.6222 
    0.2823 	   27.8000 	    2.0000 	   50.0000 	   36.6542 
    0.6638 	   27.8620 	    2.0000 	   50.0000 	   36.6852 
    0.5570 	   27.9280 	    2.0000 	   50.0000 	   36.7182 
    0.6027 	   27.9980 	    2.0000 	   50.0000 	   36.7532 
    0.6943 	   28.0640 	    2.0000 	   50.0000 	   36.7862 
    0.6485 	   28.1280 	    2.0000 	   50.0000 	   36.8182 
    0.6180 	   28.2000 	    2.0000 	   50.0000 	   36.8542 
    0.7706 	   28.2660 	    2.0000 	   50.0000 	   36.8872 
    0.5112 	   28.3320 	    2.0000 	   50.0000 	   36.9202 
    0.3433 	   28.3980 	    2.0000 	   50.0000 	   36.9532 
    0.3738 	   28.4640 	    2.0000 	   50.0000 	   36.9862 
    0.2213 	   28.5260 	    2.0000 	   50.0000 	   37.0172 
    0.3128 	   28.5940 	    2.0000 	   50.0000 	   37.0512 
    0.6485 	   28.6680 	    2.0000 	   50.0000 	   37.0882 
    0.6485 	   28.7320 	    2.0000 	   50.0000 	   37.1202 
    0.6180 	   28.7940 	    2.0000 	   50.0000 	   37.1512 
    0.5417 	   28.8600 	    2.0000 	   50.0000 	   37.1842 
    0.6180 	   28.9220 	    2.0000 	   50.0000 	   37.2152 
    0.5875 	   28.9880 	    2.0000 	   50.0000 	   37.2482 
    0.6790 	   29.0540 	    2.0000 	   50.0000 	   37.2812 
    0.5722 	   29.1160 	    2.0000 	   50.0000 	   37.3122 
    0.4959 	   29.1880 	    2.0000 	   50.0000 	   37.3482 
    0.6027 	   29.2520 	    2.0000 	   50.0000 	   37.3802 
    0.5264 	   29.3180 	    2.0000 	   50.0000 	   37.4132 
    0.5722 	   29.3820 	    2.0000 	   50.0000 	   37.4452 
    0.4654 	   29.4460 	    2.0000 	   50.0000 	   37.4772 
    0.5875 	   29.5120 	    2.0000 	   50.0000 	   37.5102 
    0.7553 	   29.5780 	    2.0000 	   50.0000 	   37.5432 
    0.4959 	   29.6500 	    2.0000 	   50.0000 	   37.5792 
    0.6332 	   29.7140 	    2.0000 	   50.0000 	   37.6112 
    0.6790 	   29.7800 	    2.0000 	   50.0000 	   37.6442 
    0.5112 	   29.8460 	    2.0000 	   50.0000 	   37.6772 
    0.5875 	   29.9080 	    2.0000 	   50.0000 	   37.7082 
    0.5570 	   29.9700 	    2.0000 	   50.0000 	   37.7392 
    0.6027 	   30.0320 	    2.0000 	   50.0000 	   37.7702 
    0.3281 	   30.0960 	    2.0000 	   50.0000 	   37.8022 
    0.6332 	   30.1680 	    2.0000 	   50.0000 	   37.8383 
    0.7095 	   30.2300 	    2.0000 	   50.0000 	   37.8693 
    0.5875 	   30.2940 	    2.0000 	   50.0000 	   37.9013 
    0.6790 	   30.3620 	    2.0000 	   50.0000 	   37.9353 
    0.7401 	   30.4300 	    2.0000 	   50.0000 	   37.9693 
    0.6790 	   30.4940 	    2.0000 	   50.0000 	   38.0013 
    0.8469 	   30.5580 	    2.0000 	   50.0000 	   38.0333 
    0.3891 	   30.6240 	    2.0000 	   50.0000 	   38.0663 
    0.6027 	   30.6940 	    2.0000 	   50.0000 	   38.1013 
    0.4196 	   30.7580 	    2.0000 	   50.0000 	   38.1333 
    0.6332 	   30.8180 	    2.0000 	   50.0000 	   38.1633 
    0.5722 	   30.8840 	    2.0000 	   50.0000 	   38.1963 
    0.5875 	   30.9520 	    2.0000 	   50.0000 	   38.2303 
    0.5875 	   31.0200 	    2.0000 	   50.0000 	   38.2643 
    0.5264 	   31.0860 	    2.0000 	   50.0000 	   38.2973 
    0.4959 	   31.1560 	    2.0000 	   50.0000 	   38.3323 
    0.6638 	   31.2220 	    2.0000 	   50.0000 	   38.3653 
    0.6332 	   31.2840 	    2.0000 	   50.0000 	   38.3963 
    0.6943 	   31.3520 	    2.0000 	   50.0000 	   38.4303 
    0.6027 	   31.4180 	    2.0000 	   50.0000 	   38.4633 
    0.5875 	   31.4860 	    2.0000 	   50.0000 	   38.4973 
    0.5875 	   31.5500 	    2.0000 	   50.0000 	   38.5293 
    0.5875 	   31.6200 	    2.0000 	   50.0000 	   38.5643 
    0.4807 	   31.6960 	    2.0000 	   50.0000 	   38.6023 
    0.7248 	   31.7620 	    2.0000 	   50.0000 	   38.6353 
    0.7858 	   31.8220 	    2.0000 	   50.0000 	   38.6653 
    0.7095 	   31.8840 	    2.0000 	   50.0000 	   38.6963 
    0.7401 	   31.9520 	    2.0000 	   50.0000 	   38.7303 
    0.7095 	   32.0200 	    2.0000 	   50.0000 	   38.7643 
    0.6790 	   32.0820 	    2.0000 	   50.0000 	   38.7953 
    0.8011 	   32.1560 	    2.0000 	   50.0000 	   38.8323 
    0.6027 	   32.2260 	    2.0000 	   50.0000 	   38.8673 
    0.7095 	   32.2900 	    2.0000 	   50.0000 	   38.8993 
    0.3433 	   32.3560 	    2.0000 	   50.0000 	   38.9323 
    0.6790 	   32.4220 	    2.0000 	   50.0000 	   38.9653 
    0.6027 	   32.4880 	    2.0000 	   50.0000 	   38.9983 
    0.4807 	   32.5560 	    2.0000 	   50.0000 	   39.0323 
    0.5722 	   32.6200 	    2.0000 	   50.0000 	   39.0643 
    0.6332 	   32.6940 	    2.0000 	   50.0000 	   39.1003 
    0.5875 	   32.7560 	    2.0000 	   50.0000 	   39.1313 
    0.6332 	   32.8240 	    2.0000 	   50.0000 	   39.1653 
    0.5417 	   32.8900 	    2.0000 	   50.0000 	   39.1983 
    0.5875 	   32.9540 	    2.0000 	   50.0000 	   39.2303 
    0.7858 	   33.0200 	    2.0000 	   50.0000 	   39.2633 
    0.5112 	   33.0880 	    2.0000 	   50.0000 	   39.2973 
    0.7095 	   33.1640 	    2.0000 	   50.0000 	   39.3353 
    0.8316 	   33.2260 	    2.0000 	   50.0000 	   39.3663 
    0.7858 	   33.2980 	    2.0000 	   50.0000 	   39.4023 
    0.4807 	   33.3620 	    2.0000 	   50.0000 	   39.4343 
    0.5417 	   33.4280 	    2.0000 	   50.0000 	   39.4673 
    0.6180 	   33.4960 	    2.0000 	   50.0000 	   39.5013 
    0.6485 	   33.5640 	    2.0000 	   50.0000 	   39.5353 
    0.6332 	   33.6280 	    2.0000 	   50.0000 	   39.5674 
    0.7401 	   33.6960 	    2.0000 	   50.0000 	   39.6014 
    0.6943 	   33.7600 	    2.0000 	   50.0000 	   39.6334 
    0.7401 	   33.8220 	    2.0000 	   50.0000 	   39.6644 
    0.5112 	   33.8920 	    2.0000 	   50.0000 	   39.6994 
    0.6485 	   33.9600 	    2.0000 	   50.0000 	   39.7334 
    0.7706 	   34.0240 	    2.0000 	   50.0000 	   39.7654 
    0.5722 	   34.0860 	    2.0000 	   50.0000 	   39.7964 
    0.6485 	   34.1540 	    2.0000 	   50.0000 	   39.8304 
    0.7095 	   34.2220 	    2.0000 	   50.0000 	   39.8644 
    0.8164 	   34.2860 	    2.0000 	   50.0000 	   39.8964 
    0.4654 	   34.3500 	    2.0000 	   50.0000 	   39.9284 
    0.4501 	   34.4160 	    2.0000 	   50.0000 	   39.9614 
    0.6790 	   34.4840 	    2.0000 	   50.0000 	   39.9954 
    0.7706 	   34.5480 	    2.0000 	   50.0000 	   40.0274 
    0.5570 	   34.6160 	    2.0000 	   50.0000 	   40.0614 
    0.6332 	   34.6840 	    2.0000 	   50.0000 	   40.0954 
    0.7553 	   34.7460 	    2.0000 	   50.0000 	   40.1264 
    0.7553 	   34.8120 	    2.0000 	   50.0000 	   40.1594 
    0.7095 	   34.8760 	    2.0000 	   50.0000 	   40.1914 
    0.8927 	   34.9440 	    2.0000 	   50.0000 	   40.2254 
    0.5417 	   35.0100 	    2.0000 	   50.0000 	   40.2584 
    0.7858 	   35.0760 	    2.0000 	   50.0000 	   40.2914 
    0.4959 	   35.1500 	    2.0000 	   50.0000 	   40.3284 
    0.8011 	   35.2120 	    2.0000 	   50.0000 	   40.3594 
    0.7248 	   35.2740 	    2.0000 	   50.0000 	   40.3904 
    0.5264 	   35.3360 	    2.0000 	   50.0000 	   40.4214 
    0.5875 	   35.4020 	    2.0000 	   50.0000 	   40.4544 
    0.6790 	   35.4700 	    2.0000 	   50.0000 	   40.4884 
    0.7248 	   35.5360 	    2.0000 	   50.0000 	   40.5214 
    0.6332 	   35.6040 	    2.0000 	   50.0000 	   40.5554 
    0.6027 	   35.6820 	    2.0000 	   50.0000 	   40.5944 
    0.6180 	   35.7480 	    2.0000 	   50.0000 	   40.6274 
    0.6027 	   35.8120 	    2.0000 	   50.0000 	   40.6594 
    0.6943 	   35.8780 	    2.0000 	   50.0000 	   40.6924 
    0.5264 	   35.9440 	    2.0000 	   50.0000 	   40.7254 
    0.6027 	   36.0120 	    2.0000 	   50.0000 	   40.7594 
    0.8164 	   36.0800 	    2.0000 	   50.0000 	   40.7934 
    0.6332 	   36.1540 	    2.0000 	   50.0000 	   40.8304 
    0.6485 	   36.2180 	    2.0000 	   50.0000 	   40.8624 
    0.6180 	   36.2840 	    2.0000 	   50.0000 	   40.8954 
    0.6027 	   36.3460 	    2.0000 	   50.0000 	   40.9264 
    0.7248 	   36.4120 	    2.0000 	   50.0000 	   40.9594 
    0.7553 	   36.4780 	    2.0000 	   50.0000 	   40.9924 
    0.5570 	   36.5420 	    2.0000 	   50.0000 	   41.0244 
    0.4959 	   36.6100 	    2.0000 	   50.0000 	   41.0584 
    0.5264 	   36.6740 	    2.0000 	   50.0000 	   41.0904 
    0.6638 	   36.7400 	    2.0000 	   50.0000 	   41.1234 
    0.7553 	   36.8040 	    2.0000 	   50.0000 	   41.1554 
    0.4349 	   36.8700 	    2.0000 	   50.0000 	   41.1884 
    0.6485 	   36.9400 	    2.0000 	   50.0000 	   41.2234 
    0.7095 	   37.0100 	    2.0000 	   50.0000 	   41.2584 
    0.5570 	   37.0740 	    2.0000 	   50.0000 	   41.2905 
    0.6485 	   37.1540 	    2.0000 	   50.0000 	   41.3305 
    0.6790 	   37.2220 	    2.0000 	   50.0000 	   41.3645 
    0.7095 	   37.2880 	    2.0000 	   50.0000 	   41.3975 
    0.7858 	   37.3520 	    2.0000 	   50.0000 	   41.4295 
    0.7706 	   37.4220 	    2.0000 	   50.0000 	   41.4645 
    0.5875 	   37.4880 	    2.0000 	   50.0000 	   41.4975 
    0.6180 	   37.5600 	    2.0000 	   50.0000 	   41.5335 
    0.6943 	   37.6280 	    2.0000 	   50.0000 	   41.5675 
    0.8011 	   37.7060 	    2.0000 	   50.0000 	   41.6065 
    0.8164 	   37.7740 	    2.0000 	   50.0000 	   41.6405 
    0.6943 	   37.8380 	    2.0000 	   50.0000 	   41.6725 
    0.6790 	   37.9060 	    2.0000 	   50.0000 	   41.7065 
    0.7706 	   37.9720 	    2.0000 	   50.0000 	   41.7395 
    0.8011 	   38.0380 	    2.0000 	   50.0000 	   41.7725 
    0.6027 	   38.1020 	    2.0000 	   50.0000 	   41.8045 
    0.6943 	   38.1760 	    2.0000 	   50.0000 	   41.8415 
    0.6638 	   38.2400 	    2.0000 	   50.0000 	   41.8735 
    0.6790 	   38.3060 	    2.0000 	   50.0000 	   41.9065 
    0.6638 	   38.3740 	    2.0000 	   50.0000 	   41.9405 
    0.7248 	   38.4400 	    2.0000 	   50.0000 	   41.9735 
    0.6790 	   38.5060 	    2.0000 	   50.0000 	   42.0065 
    0.6790 	   38.5740 	    2.0000 	   50.0000 	   42.0405 
    0.5570 	   38.6420 	    2.0000 	   50.0000 	   42.0745 
    0.6943 	   38.7080 	    2.0000 	   50.0000 	   42.1075 
    0.4044 	   38.7780 	    2.0000 	   50.0000 	   42.1425 
    0.7401 	   38.8500 	    2.0000 	   50.0000 	   42.1785 
    0.6485 	   38.9200 	    2.0000 	   50.0000 	   42.2135 
    0.3281 	   38.9840 	    2.0000 	   50.0000 	   42.2455 
    0.5570 	   39.0500 	    2.0000 	   50.0000 	   42.2785 
    0.6638 	   39.1180 	    2.0000 	   50.0000 	   42.3125 
    0.4959 	   39.1920 	    2.0000 	   50.0000 	   42.3495 
    0.7248 	   39.2600 	    2.0000 	   50.0000 	   42.3835 
    0.8164 	   39.3260 	    2.0000 	   50.0000 	   42.4165 
    0.7706 	   39.3900 	    2.0000 	   50.0000 	   42.4485 
    0.8164 	   39.4580 	    2.0000 	   50.0000 	   42.4815 
    0.6943 	   39.5260 	    2.0000 	   50.0000 	   42.5165 
    0.3128 	   39.5940 	    2.0000 	   50.0000 	   42.5505 
    0.6638 	   39.6620 	    2.0000 	   50.0000 	   42.5845 
    0.6027 	   39.7300 	    2.0000 	   50.0000 	   42.6185 
    0.7706 	   39.8100 	    2.0000 	   50.0000 	   42.6585 
    0.6638 	   39.8780 	    2.0000 	   50.0000 	   42.6925 
    0.6638 	   39.9520 	    2.0000 	   50.0000 	   42.7295 
    0.6180 	   40.0180 	    2.0000 	   50.0000 	   42.7625 
    0.8316 	   40.0880 	    2.0000 	   50.0000 	   42.7975 
    0.6638 	   40.1620 	    2.0000 	   50.0000 	   42.8345 
    0.6180 	   40.2300 	    2.0000 	   50.0000 	   42.8685 
    0.6027 	   40.2960 	    2.0000 	   50.0000 	   42.9015 
    0.7401 	   40.3660 	    2.0000 	   50.0000 	   42.9365 
    0.7095 	   40.4300 	    2.0000 	   50.0000 	   42.9685 
    0.6943 	   40.4980 	    2.0000 	   50.0000 	   43.0025 
    0.5722 	   40.5660 	    2.0000 	   50.0000 	   43.0365 
    0.6485 	   40.6360 	    2.0000 	   50.0000 	   43.0716 
    0.7706 	   40.7060 	    2.0000 	   50.0000 	   43.1066 
    0.7858 	   40.7760 	    2.0000 	   50.0000 	   43.1416 
    0.7706 	   40.8440 	    2.0000 	   50.0000 	   43.1756 
    0.6943 	   40.9120 	    2.0000 	   50.0000 	   43.2096 
    0.8316 	   40.9800 	    2.0000 	   50.0000 	   43.2436 
    0.7248 	   41.0480 	    2.0000 	   50.0000 	   43.2776 
    0.6332 	   41.1160 	    2.0000 	   50.0000 	   43.3116 
    0.5875 	   41.1880 	    2.0000 	   50.0000 	   43.3476 
    0.7706 	   41.2620 	    2.0000 	   50.0000 	   43.3846 
    0.6180 	   41.3300 	    2.0000 	   50.0000 	   43.4186 
    0.6790 	   41.4000 	    2.0000 	   50.0000 	   43.4536 
    0.8011 	   41.4640 	    2.0000 	   50.0000 	   43.4856 
    0.7706 	   41.5280 	    2.0000 	   50.0000 	   43.5176 
    0.6790 	   41.5920 	    2.0000 	   50.0000 	   43.5496 
    0.5417 	   41.6620 	    2.0000 	   50.0000 	   43.5846 
    0.8621 	   41.7280 	    2.0000 	   50.0000 	   43.6176 
    0.8316 	   41.7960 	    2.0000 	   50.0000 	   43.6516 
    0.6943 	   41.8620 	    2.0000 	   50.0000 	   43.6846 
    0.7858 	   41.9320 	    2.0000 	   50.0000 	   43.7196 
    0.7706 	   42.0000 	    2.0000 	   50.0000 	   43.7536 
    0.8469 	   42.0700 	    2.0000 	   50.0000 	   43.7886 
    0.8621 	   42.1460 	    2.0000 	   50.0000 	   43.8266 
    0.7858 	   42.2100 	    2.0000 	   50.0000 	   43.8586 
    0.8011 	   42.2720 	    2.0000 	   50.0000 	   43.8896 
    0.8316 	   42.3400 	    2.0000 	   50.0000 	   43.9236 
    0.6027 	   42.4080 	    2.0000 	   50.0000 	   43.9576 
    0.5875 	   42.4760 	    2.0000 	   50.0000 	   43.9916 
    0.7248 	   42.5460 	    2.0000 	   50.0000 	   44.0266 
    0.6943 	   42.6120 	    2.0000 	   50.0000 	   44.0596 
    0.6485 	   42.6800 	    2.0000 	   50.0000 	   44.0936 
    0.5417 	   42.7520 	    2.0000 	   50.0000 	   44.1296 
    0.8469 	   42.8160 	    2.0000 	   50.0000 	   44.1616 
    0.8164 	   42.8860 	    2.0000 	   50.0000 	   44.1966 
    0.5875 	   42.9540 	    2.0000 	   50.0000 	   44.2306 
    0.6638 	   43.0280 	    2.0000 	   50.0000 	   44.2676 
    0.6332 	   43.0980 	    2.0000 	   50.0000 	   44.3026 
    0.7095 	   43.1720 	    2.0000 	   50.0000 	   44.3396 
    0.8316 	   43.2420 	    2.0000 	   50.0000 	   44.3746 
    0.7401 	   43.3100 	    2.0000 	   50.0000 	   44.4086 
    0.8469 	   43.3820 	    2.0000 	   50.0000 	   44.4446 
    0.7401 	   43.4480 	    2.0000 	   50.0000 	   44.4776 
    0.7553 	   43.5140 	    2.0000 	   50.0000 	   44.5106 
    0.9079 	   43.5780 	    2.0000 	   50.0000 	   44.5426 
    0.4501 	   43.6460 	    2.0000 	   50.0000 	   44.5766 
    0.6943 	   43.7140 	    2.0000 	   50.0000 	   44.6106 
    0.7858 	   43.8100 	    2.0000 	   50.0000 	   44.6586 
    0.7401 	   43.8680 	    2.0000 	   50.0000 	   44.6876 
    0.8621 	   43.9320 	    2.0000 	   50.0000 	   44.7196 
    0.7553 	   44.0000 	    2.0000 	   50.0000 	   44.7536 
    0.7553 	   44.0660 	    2.0000 	   50.0000 	   44.7866 
    0.6790 	   44.1360 	    2.0000 	   50.0000 	   44.8217 
    0.7095 	   44.1980 	    2.0000 	   50.0000 	   44.8527 
    0.7248 	   44.2640 	    2.0000 	   50.0000 	   44.8857 
    0.6943 	   44.3300 	    2.0000 	   50.0000 	   44.9187 
    0.8927 	   44.3980 	    2.0000 	   50.0000 	   44.9527 
    0.6485 	   44.4680 	    2.0000 	   50.0000 	   44.9877 
    0.8316 	   44.5340 	    2.0000 	   50.0000 	   45.0207 
    0.7095 	   44.6020 	    2.0000 	   50.0000 	   45.0547 
    0.6485 	   44.6660 	    2.0000 	   50.0000 	   45.0867 
    0.8164 	   44.7380 	    2.0000 	   50.0000 	   45.1227 
    0.6180 	   44.8060 	    2.0000 	   50.0000 	   45.1567 
    0.8164 	   44.8720 	    2.0000 	   50.0000 	   45.1897 
    0.8164 	   44.9400 	    2.0000 	   50.0000 	   45.2237 
    0.7248 	   45.0100 	    2.0000 	   50.0000 	   45.2587 
    0.6790 	   45.0780 	    2.0000 	   50.0000 	   45.2927 
    0.7095 	   45.1540 	    2.0000 	   50.0000 	   45.3307 
    0.9384 	   45.2200 	    2.0000 	   50.0000 	   45.3637 
    0.8011 	   45.2880 	    2.0000 	   50.0000 	   45.3977 
    0.5722 	   45.3580 	    2.0000 	   50.0000 	   45.4327 
    0.6027 	   45.4300 	    2.0000 	   50.0000 	   45.4687 
    0.7553 	   45.4980 	    2.0000 	   50.0000 	   45.5027 
    0.6943 	   45.5640 	    2.0000 	   50.0000 	   45.5357 
    0.8011 	   45.6320 	    2.0000 	   50.0000 	   45.5697 
    0.8621 	   45.7000 	    2.0000 	   50.0000 	   45.6037 
    0.9079 	   45.7660 	    2.0000 	   50.0000 	   45.6367 
    0.6332 	   45.8340 	    2.0000 	   50.0000 	   45.6707 
    0.7095 	   45.9060 	    2.0000 	   50.0000 	   45.7067 
    0.7095 	   45.9720 	    2.0000 	   50.0000 	   45.7397 
    0.7858 	   46.0420 	    2.0000 	   50.0000 	   45.7747 
    0.7095 	   46.1120 	    2.0000 	   50.0000 	   45.8097 
    0.8011 	   46.1840 	    2.0000 	   50.0000 	   45.8457 
    0.8469 	   46.2480 	    2.0000 	   50.0000 	   45.8777 
    0.8774 	   46.3140 	    2.0000 	   50.0000 	   45.9107 
    0.8011 	   46.3780 	    2.0000 	   50.0000 	   45.9427 
    0.8469 	   46.4460 	    2.0000 	   50.0000 	   45.9767 
    0.8011 	   46.5100 	    2.0000 	   50.0000 	   46.0087 
    0.6943 	   46.5760 	    2.0000 	   50.0000 	   46.0417 
    0.6943 	   46.6480 	    2.0000 	   50.0000 	   46.0777 
    0.7401 	   46.8220 	    2.0000 	   50.0000 	   46.1647 
    0.7248 	   46.9260 	    2.0000 	   50.0000 	   46.2167 
    0.8927 	   46.9900 	    2.0000 	   50.0000 	   46.2487 
    0.7248 	   47.0480 	    2.0000 	   50.0000 	   46.2777 
    0.7095 	   47.1100 	    2.0000 	   50.0000 	   46.3087 
    0.6638 	   47.1840 	    2.0000 	   50.0000 	   46.3457 
    0.7248 	   47.2540 	    2.0000 	   50.0000 	   46.3807 
    0.8164 	   47.3240 	    2.0000 	   50.0000 	   46.4157 
    0.6943 	   47.3940 	    2.0000 	   50.0000 	   46.4507 
    0.9384 	   47.4680 	    2.0000 	   50.0000 	   46.4877 
    0.6638 	   47.5380 	    2.0000 	   50.0000 	   46.5227 
    0.6943 	   47.6040 	    2.0000 	   50.0000 	   46.5558 
    0.6485 	   47.6740 	    2.0000 	   50.0000 	   46.5908 
    1.0147 	   47.7460 	    2.0000 	   50.0000 	   46.6268 
    0.7401 	   47.8180 	    2.0000 	   50.0000 	   46.6628 
    0.7553 	   47.8920 	    2.0000 	   50.0000 	   46.6998 
    0.7553 	   47.9580 	    2.0000 	   50.0000 	   46.7328 
    0.7553 	   48.0300 	    2.0000 	   50.0000 	   46.7688 
    0.8469 	   48.0980 	    2.0000 	   50.0000 	   46.8028 
    0.7858 	   48.1740 	    2.0000 	   50.0000 	   46.8408 
    0.7706 	   48.2420 	    2.0000 	   50.0000 	   46.8748 
    0.7706 	   48.3120 	    2.0000 	   50.0000 	   46.9098 
    0.7706 	   48.3820 	    2.0000 	   50.0000 	   46.9448 
    0.8621 	   48.4520 	    2.0000 	   50.0000 	   46.9798 
    0.7095 	   48.5200 	    2.0000 	   50.0000 	   47.0138 
    0.8621 	   48.5860 	    2.0000 	   50.0000 	   47.0468 
    0.8469 	   48.6560 	    2.0000 	   50.0000 	   47.0818 
    0.8774 	   48.7240 	    2.0000 	   50.0000 	   47.1158 
    0.8621 	   48.7940 	    2.0000 	   50.0000 	   47.1508 
    0.5722 	   48.8640 	    2.0000 	   50.0000 	   47.1858 
    0.7553 	   48.9320 	    2.0000 	   50.0000 	   47.2198 
    0.9842 	   49.0020 	    2.0000 	   50.0000 	   47.2548 
    0.8621 	   49.0660 	    2.0000 	   50.0000 	   47.2868 
    0.6485 	   49.1400 	    2.0000 	   50.0000 	   47.3238 
    0.4959 	   49.2080 	    2.0000 	   50.0000 	   47.3578 
    0.8011 	   49.2800 	    2.0000 	   50.0000 	   47.3938 
    1.0605 	   49.3500 	    2.0000 	   50.0000 	   47.4288 
    0.8774 	   49.4180 	    2.0000 	   50.0000 	   47.4628 
    0.8774 	   49.4840 	    2.0000 	   50.0000 	   47.4958 
    0.9079 	   49.5500 	    2.0000 	   50.0000 	   47.5288 
    0.8164 	   49.6180 	    2.0000 	   50.0000 	   47.5628 
    0.9537 	   49.6840 	    2.0000 	   50.0000 	   47.5958 
    0.7401 	   49.7520 	    2.0000 	   50.0000 	   47.6298 
    0.7248 	   49.8240 	    2.0000 	   50.0000 	   47.6658 
    0.7553 	   49.8960 	    2.0000 	   50.0000 	   47.7018 
    0.8621 	   49.9660 	    2.0000 	   50.0000 	   47.7368 
    0.7858 	   50.0360 	    2.0000 	   50.0000 	   47.7718 
    0.7706 	   50.1040 	    2.0000 	   50.0000 	   47.8058 
    0.8469 	   50.1800 	    2.0000 	   50.0000 	   47.8438 
    0.8927 	   50.2500 	    2.0000 	   50.0000 	   47.8788 
    0.7401 	   50.3200 	    2.0000 	   50.0000 	   47.9138 
    0.7553 	   50.3940 	    2.0000 	   50.0000 	   47.9508 
    0.5875 	   50.4640 	    2.0000 	   50.0000 	   47.9858 
    0.7706 	   50.5380 	    2.0000 	   50.0000 	   48.0228 
    0.9232 	   50.6060 	    2.0000 	   50.0000 	   48.0568 
    0.6180 	   50.6780 	    2.0000 	   50.0000 	   48.0928 
    0.7858 	   50.7500 	    2.0000 	   50.0000 	   48.1288 
    0.9689 	   50.8200 	    2.0000 	   50.0000 	   48.1638 
    0.6943 	   50.8860 	    2.0000 	   50.0000 	   48.1968 
    0.7706 	   50.9560 	    2.0000 	   50.0000 	   48.2318 
    0.8621 	   51.0240 	    2.0000 	   50.0000 	   48.2658 
    0.7095 	   51.0920 	    2.0000 	   50.0000 	   48.2999 
    0.5570 	   51.1680 	    2.0000 	   50.0000 	   48.3379 
    0.8621 	   51.2360 	    2.0000 	   50.0000 	   48.3719 
    0.7095 	   51.3040 	    2.0000 	   50.0000 	   48.4059 
    0.8621 	   51.3720 	    2.0000 	   50.0000 	   48.4399 
    0.8469 	   51.4380 	    2.0000 	   50.0000 	   48.4729 
    0.7553 	   51.5120 	    2.0000 	   50.0000 	   48.5099 
    0.8774 	   51.5800 	    2.0000 	   50.0000 	   48.5439 
    0.9232 	   51.6500 	    2.0000 	   50.0000 	   48.5789 
    0.9689 	   51.7240 	    2.0000 	   50.0000 	   48.6159 
    0.8011 	   51.8100 	    2.0000 	   50.0000 	   48.6579 
    0.8469 	   51.8820 	    2.0000 	   50.0000 	   48.6949 
    0.8469 	   51.9520 	    2.0000 	   50.0000 	   48.7299 
    0.7553 	   52.0220 	    2.0000 	   50.0000 	   48.7649 
    0.5875 	   52.0860 	    2.0000 	   50.0000 	   48.7969 
    0.8011 	   52.1620 	    2.0000 	   50.0000 	   48.8349 
    0.7706 	   52.2300 	    2.0000 	   50.0000 	   48.8689 
    0.7553 	   52.3000 	    2.0000 	   50.0000 	   48.9039 
    0.8469 	   52.3720 	    2.0000 	   50.0000 	   48.9399 
    0.8164 	   52.4420 	    2.0000 	   50.0000 	   48.9749 
    0.9232 	   52.5080 	    2.0000 	   50.0000 	   49.0079 
    0.8011 	   52.5760 	    2.0000 	   50.0000 	   49.0419 
    0.9384 	   52.6480 	    2.0000 	   50.0000 	   49.0779 
    0.9232 	   52.7200 	    2.0000 	   50.0000 	   49.1139 
    0.8316 	   52.7860 	    2.0000 	   50.0000 	   49.1469 
    0.8621 	   52.8580 	    2.0000 	   50.0000 	   49.1829 
    0.8927 	   52.9260 	    2.0000 	   50.0000 	   49.2169 
    0.7401 	   52.9960 	    2.0000 	   50.0000 	   49.2519 
    0.8621 	   53.0640 	    2.0000 	   50.0000 	   49.2859 
    1.0452 	   53.1340 	    2.0000 	   50.0000 	   49.3209 
    0.9079 	   53.2080 	    2.0000 	   50.0000 	   49.3579 
    0.9689 	   53.2800 	    2.0000 	   50.0000 	   49.3939 
    0.7553 	   53.3540 	    2.0000 	   50.0000 	   49.4309 
    0.9995 	   53.4240 	    2.0000 	   50.0000 	   49.4659 
    0.8927 	   53.4900 	    2.0000 	   50.0000 	   49.4989 
    0.7553 	   53.5600 	    2.0000 	   50.0000 	   49.5339 
    0.9537 	   53.6300 	    2.0000 	   50.0000 	   49.5689 
    0.8621 	   53.7000 	    2.0000 	   50.0000 	   49.6039 
    0.8927 	   53.7720 	    2.0000 	   50.0000 	   49.6399 
    0.8469 	   53.8380 	    2.0000 	   50.0000 	   49.6729 
    0.8621 	   53.9060 	    2.0000 	   50.0000 	   49.7069 
    0.8011 	   53.9760 	    2.0000 	   50.0000 	   49.7419 
    0.9384 	   54.0480 	    2.0000 	   50.0000 	   49.7779 
    0.7401 	   54.1140 	    2.0000 	   50.0000 	   49.8109 
    0.8927 	   54.1900 	    2.0000 	   50.0000 	   49.8489 
    0.9995 	   54.2580 	    2.0000 	   50.0000 	   49.8829 
    0.6485 	   54.3280 	    2.0000 	   50.0000 	   49.9179 
    0.7706 	   54.3980 	    2.0000 	   50.0000 	   49.9529 
    0.8316 	   54.4680 	    2.0000 	   50.0000 	   49.9879 
    0.8621 	   54.5380 	    2.0000 	   50.0000 	   50.0229 
    0.8621 	   54.6060 	    2.0000 	   50.0000 	   50.0569 
    0.7401 	   54.6760 	    2.0000 	   50.0000 	   50.0920 
    0.9384 	   54.7460 	    2.0000 	   50.0000 	   50.1270 
    0.9537 	   54.8160 	    2.0000 	   50.0000 	   50.1620 
    0.9995 	   54.8860 	    2.0000 	   50.0000 	   50.1970 
    0.9232 	   54.9560 	    2.0000 	   50.0000 	   50.2320 
    0.8621 	   55.0240 	    2.0000 	   50.0000 	   50.2660 
    0.9842 	   55.0960 	    2.0000 	   50.0000 	   50.3020 
    0.9079 	   55.1740 	    2.0000 	   50.0000 	   50.3400 
    0.7858 	   55.2420 	    2.0000 	   50.0000 	   50.3750 
    0.8774 	   55.3120 	    2.0000 	   50.0000 	   50.4100 
    0.6485 	   55.3840 	    2.0000 	   50.0000 	   50.4460 
    0.9384 	   55.4540 	    2.0000 	   50.0000 	   50.4810 
    0.6485 	   55.5240 	    2.0000 	   50.0000 	   50.5160 
    0.9079 	   55.5940 	    2.0000 	   50.0000 	   50.5510 
    0.9537 	   55.6680 	    2.0000 	   50.0000 	   50.5880 
    0.6943 	   55.7400 	    2.0000 	   50.0000 	   50.6240 
    0.7553 	   55.8100 	    2.0000 	   50.0000 	   50.6590 
    0.9232 	   55.8840 	    2.0000 	   50.0000 	   50.6960 
    0.8011 	   55.9560 	    2.0000 	   50.0000 	   50.7320 
    1.0147 	   56.0240 	    2.0000 	   50.0000 	   50.7660 
    0.8774 	   56.0940 	    2.0000 	   50.0000 	   50.8010 
    0.5722 	   56.1740 	    2.0000 	   50.0000 	   50.8410 
    0.8011 	   56.2420 	    2.0000 	   50.0000 	   50.8750 
    0.6027 	   56.3140 	    2.0000 	   50.0000 	   50.9110 
    0.8927 	   56.3820 	    2.0000 	   50.0000 	   50.9450 
    0.9689 	   56.4520 	    2.0000 	   50.0000 	   50.9800 
    0.9232 	   56.5260 	    2.0000 	   50.0000 	   51.0170 
    1.1063 	   56.5960 	    2.0000 	   50.0000 	   51.0520 
    0.9232 	   56.6680 	    2.0000 	   50.0000 	   51.0880 
    0.8774 	   56.7400 	    2.0000 	   50.0000 	   51.1240 
    0.9232 	   56.8100 	    2.0000 	   50.0000 	   51.1590 
    0.8927 	   56.8820 	    2.0000 	   50.0000 	   51.1950 
    0.9384 	   56.9560 	    2.0000 	   50.0000 	   51.2320 
    0.9537 	   57.0280 	    2.0000 	   50.0000 	   51.2680 
    1.1521 	   57.1020 	    2.0000 	   50.0000 	   51.3050 
    0.7095 	   57.1820 	    2.0000 	   50.0000 	   51.3450 
    0.9842 	   57.2520 	    2.0000 	   50.0000 	   51.3800 
    0.9232 	   57.3220 	    2.0000 	   50.0000 	   51.4150 
    0.8774 	   57.3940 	    2.0000 	   50.0000 	   51.4510 
    1.0452 	   57.4660 	    2.0000 	   50.0000 	   51.4870 
    0.8927 	   57.5360 	    2.0000 	   50.0000 	   51.5220 
    0.6485 	   57.6060 	    2.0000 	   50.0000 	   51.5570 
    0.9079 	   57.6760 	    2.0000 	   50.0000 	   51.5920 
    0.8316 	   57.7460 	    2.0000 	   50.0000 	   51.6270 
    0.9079 	   57.8200 	    2.0000 	   50.0000 	   51.6640 
    0.9079 	   57.8940 	    2.0000 	   50.0000 	   51.7010 
    0.8011 	   57.9620 	    2.0000 	   50.0000 	   51.7350 
    0.8927 	   58.0340 	    2.0000 	   50.0000 	   51.7710 
    1.0300 	   58.1060 	    2.0000 	   50.0000 	   51.8071 
    0.8927 	   58.1820 	    2.0000 	   50.0000 	   51.8451 
    0.9537 	   58.2540 	    2.0000 	   50.0000 	   51.8811 
    0.8774 	   58.3240 	    2.0000 	   50.0000 	   51.9161 
    0.9232 	   58.3900 	    2.0000 	   50.0000 	   51.9491 
    0.9384 	   58.4580 	    2.0000 	   50.0000 	   51.9831 
    0.8164 	   58.5300 	    2.0000 	   50.0000 	   52.0191 
    0.9842 	   58.6020 	    2.0000 	   50.0000 	   52.0551 
    0.8774 	   58.6700 	    2.0000 	   50.0000 	   52.0891 
    1.0147 	   58.7420 	    2.0000 	   50.0000 	   52.1251 
    0.9995 	   58.8120 	    2.0000 	   50.0000 	   52.1601 
    0.8927 	   58.8840 	    2.0000 	   50.0000 	   52.1961 
    0.6790 	   58.9560 	    2.0000 	   50.0000 	   52.2321 
    0.9689 	   59.0220 	    2.0000 	   50.0000 	   52.2651 
    0.9384 	   59.0940 	    2.0000 	   50.0000 	   52.3011 
    0.8316 	   59.1720 	    2.0000 	   50.0000 	   52.3401 
    0.9232 	   59.2420 	    2.0000 	   50.0000 	   52.3751 
    1.0147 	   59.3120 	    2.0000 	   50.0000 	   52.4101 
    1.0300 	   59.3840 	    2.0000 	   50.0000 	   52.4461 
    0.8621 	   59.4560 	    2.0000 	   50.0000 	   52.4821 
    0.8011 	   59.5220 	    2.0000 	   50.0000 	   52.5151 
    0.8621 	   59.5920 	    2.0000 	   50.0000 	   52.5501 
    0.9537 	   59.6600 	    2.0000 	   50.0000 	   52.5841 
    0.9842 	   59.7280 	    2.0000 	   50.0000 	   52.6181 
    0.8621 	   59.8100 	    2.0000 	   50.0000 	   52.6591 
    1.0300 	   59.8820 	    2.0000 	   50.0000 	   52.6951 
    0.9384 	   59.9540 	    2.0000 	   50.0000 	   52.7311 
    1.0300 	   60.0280 	    2.0000 	   50.0000 	   52.7681 
    0.8469 	   60.1000 	    2.0000 	   50.0000 	   52.8041 
    0.8927 	   60.1760 	    2.0000 	   50.0000 	   52.8421 
    0.8927 	   60.2440 	    2.0000 	   50.0000 	   52.8761 
    0.9384 	   60.3140 	    2.0000 	   50.0000 	   52.9111 
    0.8774 	   60.3840 	    2.0000 	   50.0000 	   52.9461 
    0.8469 	   60.4560 	    2.0000 	   50.0000 	   52.9821 
    0.8927 	   60.5280 	    2.0000 	   50.0000 	   53.0181 
    0.8164 	   60.5980 	    2.0000 	   50.0000 	   53.0531 
    1.1215 	   60.6700 	    2.0000 	   50.0000 	   53.0891 
    0.8469 	   60.7400 	    2.0000 	   50.0000 	   53.1241 
    0.9079 	   60.8140 	    2.0000 	   50.0000 	   53.1611 
    0.8927 	   60.8840 	    2.0000 	   50.0000 	   53.1961 
    0.8316 	   60.9540 	    2.0000 	   50.0000 	   53.2311 
    1.0452 	   61.0300 	    2.0000 	   50.0000 	   53.2691 
    0.7095 	   61.1040 	    2.0000 	   50.0000 	   53.3061 
    1.0910 	   61.1740 	    2.0000 	   50.0000 	   53.3411 
    1.0300 	   61.2420 	    2.0000 	   50.0000 	   53.3751 
    0.8011 	   61.3140 	    2.0000 	   50.0000 	   53.4111 
    0.9842 	   61.3860 	    2.0000 	   50.0000 	   53.4471 
    0.8316 	   61.4580 	    2.0000 	   50.0000 	   53.4831 
    0.8774 	   61.5300 	    2.0000 	   50.0000 	   53.5191 
    0.9384 	   61.5980 	    2.0000 	   50.0000 	   53.5532 
    0.9995 	   61.6700 	    2.0000 	   50.0000 	   53.5892 
    0.8316 	   61.7440 	    2.0000 	   50.0000 	   53.6262 
    0.8774 	   61.8160 	    2.0000 	   50.0000 	   53.6622 
    0.8469 	   61.8880 	    2.0000 	   50.0000 	   53.6982 
    0.6943 	   61.9580 	    2.0000 	   50.0000 	   53.7332 
    0.6790 	   62.0320 	    2.0000 	   50.0000 	   53.7702 
    0.8774 	   62.1000 	    2.0000 	   50.0000 	   53.8042 
    0.9079 	   62.1780 	    2.0000 	   50.0000 	   53.8432 
    0.8621 	   62.2460 	    2.0000 	   50.0000 	   53.8772 
    0.8774 	   62.3060 	    2.0000 	   50.0000 	   53.9072 
    0.8621 	   62.3700 	    2.0000 	   50.0000 	   53.9392 
    0.8469 	   62.4340 	    2.0000 	   50.0000 	   53.9712 
    0.8469 	   62.5040 	    2.0000 	   50.0000 	   54.0062 
    0.6332 	   62.5740 	    2.0000 	   50.0000 	   54.0412 
    0.6332 	   62.6380 	    2.0000 	   50.0000 	   54.0732 
    0.8164 	   62.7000 	    2.0000 	   50.0000 	   54.1042 
    0.9232 	   62.7660 	    2.0000 	   50.0000 	   54.1372 
    0.8621 	   62.8280 	    2.0000 	   50.0000 	   54.1682 
    0.9232 	   62.9000 	    2.0000 	   50.0000 	   54.2042 
    0.8011 	   62.9680 	    2.0000 	   50.0000 	   54.2382 
    0.8011 	   63.0400 	    2.0000 	   50.0000 	   54.2742 
    0.8164 	   63.1060 	    2.0000 	   50.0000 	   54.3072 
    0.9232 	   63.1820 	    2.0000 	   50.0000 	   54.3452 
    0.8621 	   63.2520 	    2.0000 	   50.0000 	   54.3802 
    0.9232 	   63.3260 	    2.0000 	   50.0000 	   54.4172 
    1.0147 	   63.3960 	    2.0000 	   50.0000 	   54.4522 
    0.8316 	   63.4660 	    2.0000 	   50.0000 	   54.4872 
    0.8316 	   63.5380 	    2.0000 	   50.0000 	   54.5232 
    0.8774 	   63.6060 	    2.0000 	   50.0000 	   54.5572 
    0.9842 	   63.6780 	    2.0000 	   50.0000 	   54.5932 
    0.8011 	   63.7480 	    2.0000 	   50.0000 	   54.6282 
    0.8621 	   63.8180 	    2.0000 	   50.0000 	   54.6632 
    0.7706 	   63.8880 	    2.0000 	   50.0000 	   54.6982 
    0.8011 	   63.9600 	    2.0000 	   50.0000 	   54.7342 
    0.8621 	   64.0300 	    2.0000 	   50.0000 	   54.7692 
    0.9232 	   64.1040 	    2.0000 	   50.0000 	   54.8062 
    0.9689 	   64.1840 	    2.0000 	   50.0000 	   54.8462 
    0.8316 	   64.2560 	    2.0000 	   50.0000 	   54.8822 
    0.8469 	   64.3260 	    2.0000 	   50.0000 	   54.9172 
    0.7858 	   64.3980 	    2.0000 	   50.0000 	   54.9532 
    0.9384 	   64.4700 	    2.0000 	   50.0000 	   54.9882 
    0.8469 	   64.5400 	    2.0000 	   50.0000 	   55.0242 
    0.6943 	   64.6040 	    2.0000 	   50.0000 	   55.0562 
    0.9079 	   64.6780 	    2.0000 	   50.0000 	   55.0932 
    0.9079 	   64.7480 	    2.0000 	   50.0000 	   55.1282 
    0.9537 	   64.8160 	    2.0000 	   50.0000 	   55.1622 
    0.7553 	   64.8880 	    2.0000 	   50.0000 	   55.1982 
    0.8164 	   64.9580 	    2.0000 	   50.0000 	   55.2332 
    1.0147 	   65.0280 	    2.0000 	   50.0000 	   55.2682 
    0.8011 	   65.1020 	    2.0000 	   50.0000 	   55.3053 
    0.8164 	   65.1820 	    2.0000 	   50.0000 	   55.3453 
    0.8164 	   65.2520 	    2.0000 	   50.0000 	   55.3803 
    0.7858 	   65.3260 	    2.0000 	   50.0000 	   55.4173 
    0.7553 	   65.4020 	    2.0000 	   50.0000 	   55.4553 
    0.7858 	   65.4740 	    2.0000 	   50.0000 	   55.4913 
    0.7401 	   65.5420 	    2.0000 	   50.0000 	   55.5253 
    0.7095 	   65.6120 	    2.0000 	   50.0000 	   55.5603 
    0.8316 	   65.6840 	    2.0000 	   50.0000 	   55.5963 
    0.7553 	   65.7560 	    2.0000 	   50.0000 	   55.6323 
    0.7706 	   65.8280 	    2.0000 	   50.0000 	   55.6683 
    0.9079 	   65.9020 	    2.0000 	   50.0000 	   55.7053 
    0.8164 	   65.9740 	    2.0000 	   50.0000 	   55.7413 
    0.9232 	   66.0480 	    2.0000 	   50.0000 	   55.7783 
    0.8011 	   66.1180 	    2.0000 	   50.0000 	   55.8133 
    0.8011 	   66.2040 	    2.0000 	   50.0000 	   55.8563 
    0.7858 	   66.2760 	    2.0000 	   50.0000 	   55.8923 
    0.7858 	   66.3460 	    2.0000 	   50.0000 	   55.9273 
    0.7401 	   66.4200 	    2.0000 	   50.0000 	   55.9643 
    0.8774 	   66.4940 	    2.0000 	   50.0000 	   56.0013 
    0.7095 	   66.5660 	    2.0000 	   50.0000 	   56.0373 
    0.7553 	   66.6360 	    2.0000 	   50.0000 	   56.0723 
    0.6638 	   66.7100 	    2.0000 	   50.0000 	   56.1093 
    0.6790 	   66.7820 	    2.0000 	   50.0000 	   56.1453 
    0.7553 	   66.8560 	    2.0000 	   50.0000 	   56.1823 
    0.7858 	   66.9280 	    2.0000 	   50.0000 	   56.2183 
    0.7401 	   67.0000 	    2.0000 	   50.0000 	   56.2543 
    0.6180 	   67.0720 	    2.0000 	   50.0000 	   56.2903 
    0.7095 	   67.1460 	    2.0000 	   50.0000 	   56.3273 
    0.6943 	   67.2180 	    2.0000 	   50.0000 	   56.3633 
    0.6790 	   67.2900 	    2.0000 	   50.0000 	   56.3993 
    0.7706 	   67.3620 	    2.0000 	   50.0000 	   56.4353 
    0.8164 	   67.4320 	    2.0000 	   50.0000 	   56.4703 
    0.7858 	   67.5060 	    2.0000 	   50.0000 	   56.5073 
    0.8316 	   67.5780 	    2.0000 	   50.0000 	   56.5433 
    0.6943 	   67.6500 	    2.0000 	   50.0000 	   56.5783 
    0.7553 	   67.7220 	    2.0000 	   50.0000 	   56.6143 
    0.8774 	   67.8080 	    2.0000 	   50.0000 	   56.6573 
    0.6790 	   67.8820 	    2.0000 	   50.0000 	   56.6943 
    0.8469 	   67.9520 	    2.0000 	   50.0000 	   56.7293 
    0.8469 	   68.0280 	    2.0000 	   50.0000 	   56.7673 
    0.7553 	   68.1000 	    2.0000 	   50.0000 	   56.8033 
    0.5112 	   68.1820 	    2.0000 	   50.0000 	   56.8443 
    0.6180 	   68.2540 	    2.0000 	   50.0000 	   56.8803 
    0.8164 	   68.3240 	    2.0000 	   50.0000 	   56.9153 
    0.8621 	   68.3920 	    2.0000 	   50.0000 	   56.9493 
    0.8011 	   68.4640 	    2.0000 	   50.0000 	   56.9853 
    0.6180 	   68.5400 	    2.0000 	   50.0000 	   57.0233 
    0.6638 	   68.6160 	    2.0000 	   50.0000 	   57.0614 
    0.6943 	   68.6840 	    2.0000 	   50.0000 	   57.0954 
    0.7401 	   68.7580 	    2.0000 	   50.0000 	   57.1324 
    0.6638 	   68.8280 	    2.0000 	   50.0000 	   57.1674 
    0.7248 	   68.9040 	    2.0000 	   50.0000 	   57.2054 
    0.6027 	   68.9740 	    2.0000 	   50.0000 	   57.2404 
    0.8316 	   69.0500 	    2.0000 	   50.0000 	   57.2784 
    0.6790 	   69.1200 	    2.0000 	   50.0000 	   57.3134 
    0.7553 	   69.1940 	    2.0000 	   50.0000 	   57.3504 
    0.7248 	   69.2640 	    2.0000 	   50.0000 	   57.3854 
    0.7706 	   69.3340 	    2.0000 	   50.0000 	   57.4204 
    0.4196 	   69.4080 	    2.0000 	   50.0000 	   57.4574 
    0.9079 	   69.4820 	    2.0000 	   50.0000 	   57.4944 
    0.5417 	   69.5560 	    2.0000 	   50.0000 	   57.5314 
    0.7553 	   69.6260 	    2.0000 	   50.0000 	   57.5664 
    0.6638 	   69.6980 	    2.0000 	   50.0000 	   57.6024 
    0.6943 	   69.7700 	    2.0000 	   50.0000 	   57.6384 
    0.8164 	   69.8420 	    2.0000 	   50.0000 	   57.6744 
    0.4349 	   69.9120 	    2.0000 	   50.0000 	   57.7094 
    0.7095 	   69.9820 	    2.0000 	   50.0000 	   57.7444 
    0.8621 	   70.0520 	    2.0000 	   50.0000 	   57.7794 
    0.7401 	   70.1300 	    2.0000 	   50.0000 	   57.8184 
    0.6638 	   70.2060 	    2.0000 	   50.0000 	   57.8564 
    0.6332 	   70.2780 	    2.0000 	   50.0000 	   57.8924 
    0.7858 	   70.3520 	    2.0000 	   50.0000 	   57.9294 
    0.7401 	   70.4240 	    2.0000 	   50.0000 	   57.9654 
    0.7858 	   70.4980 	    2.0000 	   50.0000 	   58.0024 
    0.5264 	   70.5680 	    2.0000 	   50.0000 	   58.0374 
    0.8316 	   70.6420 	    2.0000 	   50.0000 	   58.0744 
    0.8164 	   70.7120 	    2.0000 	   50.0000 	   58.1094 
    0.7858 	   70.7860 	    2.0000 	   50.0000 	   58.1464 
    0.7248 	   70.8560 	    2.0000 	   50.0000 	   58.1814 
    0.4959 	   70.9300 	    2.0000 	   50.0000 	   58.2184 
    0.6180 	   71.0020 	    2.0000 	   50.0000 	   58.2544 
    0.6485 	   71.0740 	    2.0000 	   50.0000 	   58.2904 
    0.7401 	   71.1440 	    2.0000 	   50.0000 	   58.3254 
    0.6943 	   71.2080 	    2.0000 	   50.0000 	   58.3574 
    0.6332 	   71.2740 	    2.0000 	   50.0000 	   58.3904 
    0.8011 	   71.3380 	    2.0000 	   50.0000 	   58.4224 
    0.7401 	   71.4040 	    2.0000 	   50.0000 	   58.4554 
    0.6790 	   71.4700 	    2.0000 	   50.0000 	   58.4884 
    0.7553 	   71.5360 	    2.0000 	   50.0000 	   58.5214 
    0.7858 	   71.6020 	    2.0000 	   50.0000 	   58.5544 
    0.8469 	   71.6660 	    2.0000 	   50.0000 	   58.5864 
    0.7401 	   71.7300 	    2.0000 	   50.0000 	   58.6184 
    0.5722 	   71.8100 	    2.0000 	   50.0000 	   58.6584 
    0.6180 	   71.8840 	    2.0000 	   50.0000 	   58.6954 
    0.4044 	   71.9560 	    2.0000 	   50.0000 	   58.7314 
    0.7553 	   72.0280 	    2.0000 	   50.0000 	   58.7674 
    0.6485 	   72.0980 	    2.0000 	   50.0000 	   58.8025 
    0.6332 	   72.1760 	    2.0000 	   50.0000 	   58.8415 
    0.6790 	   72.2500 	    2.0000 	   50.0000 	   58.8785 
    0.7248 	   72.3220 	    2.0000 	   50.0000 	   58.9145 
    0.6485 	   72.3920 	    2.0000 	   50.0000 	   58.9495 
    0.7401 	   72.4660 	    2.0000 	   50.0000 	   58.9865 
    0.6180 	   72.5400 	    2.0000 	   50.0000 	   59.0235 
    0.3738 	   72.6140 	    2.0000 	   50.0000 	   59.0605 
    0.7095 	   72.6880 	    2.0000 	   50.0000 	   59.0975 
    0.6943 	   72.7580 	    2.0000 	   50.0000 	   59.1325 
    0.7553 	   72.8200 	    2.0000 	   50.0000 	   59.1635 
    0.6485 	   72.8920 	    2.0000 	   50.0000 	   59.1995 
    0.4196 	   72.9660 	    2.0000 	   50.0000 	   59.2365 
    0.8621 	   73.0360 	    2.0000 	   50.0000 	   59.2715 
    0.7401 	   73.1080 	    2.0000 	   50.0000 	   59.3075 
    0.6638 	   73.1820 	    2.0000 	   50.0000 	   59.3445 
    0.7553 	   73.2560 	    2.0000 	   50.0000 	   59.3815 
    0.6485 	   73.3280 	    2.0000 	   50.0000 	   59.4175 
    0.6180 	   73.4040 	    2.0000 	   50.0000 	   59.4555 
    0.7248 	   73.4760 	    2.0000 	   50.0000 	   59.4915 
    0.7095 	   73.5500 	    2.0000 	   50.0000 	   59.5285 
    0.5570 	   73.6200 	    2.0000 	   50.0000 	   59.5635 
    0.6027 	   73.6920 	    2.0000 	   50.0000 	   59.5995 
    0.6638 	   73.7640 	    2.0000 	   50.0000 	   59.6355 
    0.8164 	   73.8360 	    2.0000 	   50.0000 	   59.6715 
    0.6943 	   73.9080 	    2.0000 	   50.0000 	   59.7075 
    0.6485 	   73.9840 	    2.0000 	   50.0000 	   59.7455 
    0.6638 	   74.0560 	    2.0000 	   50.0000 	   59.7815 
    0.6943 	   74.1300 	    2.0000 	   50.0000 	   59.8185 
    0.6790 	   74.2060 	    2.0000 	   50.0000 	   59.8565 
    0.5875 	   74.2840 	    2.0000 	   50.0000 	   59.8955 
    0.6180 	   74.3560 	    2.0000 	   50.0000 	   59.9315 
    0.7248 	   74.4280 	    2.0000 	   50.0000 	   59.9675 
    0.7401 	   74.5040 	    2.0000 	   51.0000 	    0.0055 
    0.7248 	   74.5800 	    2.0000 	   51.0000 	    0.0435 
    0.5875 	   74.6520 	    2.0000 	   51.0000 	    0.0795 
    0.5722 	   74.7300 	    2.0000 	   51.0000 	    0.1185 
    0.6027 	   74.8040 	    2.0000 	   51.0000 	    0.1555 
    0.6943 	   74.8760 	    2.0000 	   51.0000 	    0.1915 
    0.4807 	   74.9500 	    2.0000 	   51.0000 	    0.2285 
    0.7095 	   75.0180 	    2.0000 	   51.0000 	    0.2625 
    0.7095 	   75.0840 	    2.0000 	   51.0000 	    0.2955 
    0.7095 	   75.1520 	    2.0000 	   51.0000 	    0.3295 
    0.5264 	   75.2200 	    2.0000 	   51.0000 	    0.3635 
    0.6485 	   75.2860 	    2.0000 	   51.0000 	    0.3965 
    0.6790 	   75.3520 	    2.0000 	   51.0000 	    0.4295 
    0.7706 	   75.4160 	    2.0000 	   51.0000 	    0.4615 
    0.6027 	   75.4800 	    2.0000 	   51.0000 	    0.4935 
    0.7553 	   75.5500 	    2.0000 	   51.0000 	    0.5285 
    0.6027 	   75.6220 	    2.0000 	   51.0000 	    0.5646 
    0.7553 	   75.6960 	    2.0000 	   51.0000 	    0.6016 
    0.6180 	   75.7720 	    2.0000 	   51.0000 	    0.6396 
    0.5264 	   75.8460 	    2.0000 	   51.0000 	    0.6766 
    0.6638 	   75.9180 	    2.0000 	   51.0000 	    0.7126 
    0.5722 	   75.9900 	    2.0000 	   51.0000 	    0.7486 
    0.6790 	   76.0620 	    2.0000 	   51.0000 	    0.7846 
    0.7248 	   76.1400 	    2.0000 	   51.0000 	    0.8236 
    0.6027 	   76.2160 	    2.0000 	   51.0000 	    0.8616 
    0.6485 	   76.2880 	    2.0000 	   51.0000 	    0.8976 
    0.6485 	   76.3600 	    2.0000 	   51.0000 	    0.9336 
    0.5875 	   76.4340 	    2.0000 	   51.0000 	    0.9706 
    0.5417 	   76.5060 	    2.0000 	   51.0000 	    1.0066 
    0.4654 	   76.5780 	    2.0000 	   51.0000 	    1.0426 
    0.5570 	   76.6500 	    2.0000 	   51.0000 	    1.0786 
    0.6943 	   76.7260 	    2.0000 	   51.0000 	    1.1166 
    0.6638 	   76.8000 	    2.0000 	   51.0000 	    1.1536 
    0.6638 	   76.8720 	    2.0000 	   51.0000 	    1.1896 
    0.6332 	   76.9460 	    2.0000 	   51.0000 	    1.2266 
    0.5417 	   77.0160 	    2.0000 	   51.0000 	    1.2616 
    0.5570 	   77.0920 	    2.0000 	   51.0000 	    1.2996 
    0.7553 	   77.1680 	    2.0000 	   51.0000 	    1.3376 
    0.6638 	   77.2460 	    2.0000 	   51.0000 	    1.3766 
    0.7401 	   77.3220 	    2.0000 	   51.0000 	    1.4146 
    0.7858 	   77.3960 	    2.0000 	   51.0000 	    1.4516 
    0.5112 	   77.4700 	    2.0000 	   51.0000 	    1.4886 
    0.6180 	   77.5480 	    2.0000 	   51.0000 	    1.5276 
    0.3586 	   77.6280 	    2.0000 	   51.0000 	    1.5676 
    0.5570 	   77.7000 	    2.0000 	   51.0000 	    1.6036 
    0.6332 	   77.7740 	    2.0000 	   51.0000 	    1.6406 
    0.6332 	   77.8500 	    2.0000 	   51.0000 	    1.6786 
    0.6332 	   77.9220 	    2.0000 	   51.0000 	    1.7146 
    0.3586 	   77.9960 	    2.0000 	   51.0000 	    1.7516 
    0.5875 	   78.0700 	    2.0000 	   51.0000 	    1.7886 
    0.7401 	   78.1420 	    2.0000 	   51.0000 	    1.8246 
    0.6638 	   78.2240 	    2.0000 	   51.0000 	    1.8656 
    0.5264 	   78.2960 	    2.0000 	   51.0000 	    1.9016 
    0.4959 	   78.3680 	    2.0000 	   51.0000 	    1.9366 
    0.4959 	   78.4400 	    2.0000 	   51.0000 	    1.9736 
    0.5722 	   78.5160 	    2.0000 	   51.0000 	    2.0116 
    0.6180 	   78.5880 	    2.0000 	   51.0000 	    2.0476 
    0.6027 	   78.6640 	    2.0000 	   51.0000 	    2.0856 
    0.5570 	   78.7360 	    2.0000 	   51.0000 	    2.1216 
    0.4959 	   78.8080 	    2.0000 	   51.0000 	    2.1576 
    0.4959 	   78.8800 	    2.0000 	   51.0000 	    2.1936 
    0.5570 	   78.9540 	    2.0000 	   51.0000 	    2.2306 
    0.5722 	   79.0300 	    2.0000 	   51.0000 	    2.2686 
    0.5264 	   79.1060 	    2.0000 	   51.0000 	    2.3067 
    0.7401 	   79.1800 	    2.0000 	   51.0000 	    2.3437 
    0.5570 	   79.2540 	    2.0000 	   51.0000 	    2.3807 
    0.6332 	   79.3280 	    2.0000 	   51.0000 	    2.4177 
    0.4807 	   79.4020 	    2.0000 	   51.0000 	    2.4547 
    0.5722 	   79.4760 	    2.0000 	   51.0000 	    2.4917 
    0.6180 	   79.5480 	    2.0000 	   51.0000 	    2.5277 
    0.6027 	   79.6220 	    2.0000 	   51.0000 	    2.5647 
    0.6485 	   79.6940 	    2.0000 	   51.0000 	    2.6007 
    0.6943 	   79.7700 	    2.0000 	   51.0000 	    2.6387 
    0.4654 	   79.8440 	    2.0000 	   51.0000 	    2.6757 
    0.6485 	   79.9180 	    2.0000 	   51.0000 	    2.7127 
    0.6943 	   79.9920 	    2.0000 	   51.0000 	    2.7497 
    0.5875 	   80.0700 	    2.0000 	   51.0000 	    2.7887 
    0.5570 	   80.1460 	    2.0000 	   51.0000 	    2.8267 
    0.5112 	   80.2300 	    2.0000 	   51.0000 	    2.8687 
    0.7095 	   80.3060 	    2.0000 	   51.0000 	    2.9067 
    0.5112 	   80.3800 	    2.0000 	   51.0000 	    2.9437 
    0.6790 	   80.4540 	    2.0000 	   51.0000 	    2.9807 
    0.5875 	   80.5280 	    2.0000 	   51.0000 	    3.0177 
    0.5722 	   80.6060 	    2.0000 	   51.0000 	    3.0567 
    0.5264 	   80.6780 	    2.0000 	   51.0000 	    3.0927 
    0.5722 	   80.7560 	    2.0000 	   51.0000 	    3.1317 
    0.6332 	   80.8280 	    2.0000 	   51.0000 	    3.1677 
    0.4807 	   80.9020 	    2.0000 	   51.0000 	    3.2047 
    0.6180 	   80.9740 	    2.0000 	   51.0000 	    3.2407 
    0.6638 	   81.0500 	    2.0000 	   51.0000 	    3.2787 
    0.6180 	   81.1220 	    2.0000 	   51.0000 	    3.3147 
    0.5112 	   81.2000 	    2.0000 	   51.0000 	    3.3537 
    0.5417 	   81.2740 	    2.0000 	   51.0000 	    3.3907 
    0.5417 	   81.3480 	    2.0000 	   51.0000 	    3.4277 
    0.5417 	   81.4220 	    2.0000 	   51.0000 	    3.4647 
    0.4349 	   81.4940 	    2.0000 	   51.0000 	    3.5007 
    0.3586 	   81.5640 	    2.0000 	   51.0000 	    3.5357 
    0.6180 	   81.6380 	    2.0000 	   51.0000 	    3.5727 
    0.6638 	   81.7180 	    2.0000 	   51.0000 	    3.6127 
    0.6027 	   81.7880 	    2.0000 	   51.0000 	    3.6477 
    0.5875 	   81.8600 	    2.0000 	   51.0000 	    3.6837 
    0.4807 	   81.9380 	    2.0000 	   51.0000 	    3.7227 
    0.4349 	   82.0120 	    2.0000 	   51.0000 	    3.7597 
    0.5417 	   82.0880 	    2.0000 	   51.0000 	    3.7977 
    0.5875 	   82.1680 	    2.0000 	   51.0000 	    3.8377 
    0.4654 	   82.2380 	    2.0000 	   51.0000 	    3.8727 
    0.4807 	   82.3120 	    2.0000 	   51.0000 	    3.9097 
    0.3891 	   82.3860 	    2.0000 	   51.0000 	    3.9467 
    0.6027 	   82.4620 	    2.0000 	   51.0000 	    3.9847 
    0.5875 	   82.5320 	    2.0000 	   51.0000 	    4.0197 
    0.4654 	   82.6060 	    2.0000 	   51.0000 	    4.0568 
    0.6638 	   82.6800 	    2.0000 	   51.0000 	    4.0938 
    0.6638 	   82.7580 	    2.0000 	   51.0000 	    4.1328 
    0.6332 	   82.8320 	    2.0000 	   51.0000 	    4.1698 
    0.6180 	   82.9080 	    2.0000 	   51.0000 	    4.2078 
    0.6332 	   82.9840 	    2.0000 	   51.0000 	    4.2458 
    0.5264 	   83.0560 	    2.0000 	   51.0000 	    4.2818 
    0.6180 	   83.1320 	    2.0000 	   51.0000 	    4.3198 
    0.6027 	   83.2080 	    2.0000 	   51.0000 	    4.3578 
    0.4349 	   83.2820 	    2.0000 	   51.0000 	    4.3948 
    0.6027 	   83.3560 	    2.0000 	   51.0000 	    4.4318 
    0.6180 	   83.4320 	    2.0000 	   51.0000 	    4.4698 
    0.4807 	   83.5100 	    2.0000 	   51.0000 	    4.5088 
    0.5570 	   83.5840 	    2.0000 	   51.0000 	    4.5458 
    0.6180 	   83.6580 	    2.0000 	   51.0000 	    4.5828 
    0.5112 	   83.7340 	    2.0000 	   51.0000 	    4.6208 
    0.6180 	   83.8120 	    2.0000 	   51.0000 	    4.6598 
    0.6027 	   83.8900 	    2.0000 	   51.0000 	    4.6988 
    0.5722 	   83.9660 	    2.0000 	   51.0000 	    4.7368 
    0.5875 	   84.0400 	    2.0000 	   51.0000 	    4.7738 
    0.5570 	   84.1120 	    2.0000 	   51.0000 	    4.8098 
    0.5722 	   84.1940 	    2.0000 	   51.0000 	    4.8508 
    0.5264 	   84.2720 	    2.0000 	   51.0000 	    4.8898 
    0.5417 	   84.3460 	    2.0000 	   51.0000 	    4.9268 
    0.5875 	   84.4240 	    2.0000 	   51.0000 	    4.9658 
    0.5417 	   84.5000 	    2.0000 	   51.0000 	    5.0038 
    0.5875 	   84.5760 	    2.0000 	   51.0000 	    5.0418 
    0.5570 	   84.6540 	    2.0000 	   51.0000 	    5.0808 
    0.6638 	   84.7240 	    2.0000 	   51.0000 	    5.1158 
    0.4501 	   84.7980 	    2.0000 	   51.0000 	    5.1528 
    0.5722 	   84.8720 	    2.0000 	   51.0000 	    5.1898 
    0.4807 	   84.9440 	    2.0000 	   51.0000 	    5.2258 
    0.5264 	   85.0180 	    2.0000 	   51.0000 	    5.2628 
    0.5570 	   85.0920 	    2.0000 	   51.0000 	    5.2998 
    0.2976 	   85.1680 	    2.0000 	   51.0000 	    5.3378 
    0.5264 	   85.2440 	    2.0000 	   51.0000 	    5.3758 
    0.4044 	   85.3200 	    2.0000 	   51.0000 	    5.4138 
    0.5112 	   85.3960 	    2.0000 	   51.0000 	    5.4518 
    0.5112 	   85.4740 	    2.0000 	   51.0000 	    5.4908 
    0.6027 	   85.5460 	    2.0000 	   51.0000 	    5.5268 
    0.4349 	   85.6200 	    2.0000 	   51.0000 	    5.5638 
    0.5722 	   85.6960 	    2.0000 	   51.0000 	    5.6018 
    0.5112 	   85.7700 	    2.0000 	   51.0000 	    5.6388 
    0.4196 	   85.8440 	    2.0000 	   51.0000 	    5.6758 
    0.2976 	   85.9160 	    2.0000 	   51.0000 	    5.7118 
    0.5570 	   85.9920 	    2.0000 	   51.0000 	    5.7498 
    0.4807 	   86.0680 	    2.0000 	   51.0000 	    5.7879 
    0.4807 	   86.1400 	    2.0000 	   51.0000 	    5.8239 
    0.6027 	   86.2160 	    2.0000 	   51.0000 	    5.8619 
    0.6332 	   86.2860 	    2.0000 	   51.0000 	    5.8969 
    0.4807 	   86.3520 	    2.0000 	   51.0000 	    5.9299 
    0.6790 	   86.4220 	    2.0000 	   51.0000 	    5.9649 
    0.5417 	   86.4880 	    2.0000 	   51.0000 	    5.9979 
    0.4349 	   86.5540 	    2.0000 	   51.0000 	    6.0309 
    0.4807 	   86.6240 	    2.0000 	   51.0000 	    6.0659 
    0.5875 	   86.6880 	    2.0000 	   51.0000 	    6.0979 
    0.5112 	   86.7580 	    2.0000 	   51.0000 	    6.1329 
    0.4807 	   86.8340 	    2.0000 	   51.0000 	    6.1709 
    0.7401 	   86.9100 	    2.0000 	   51.0000 	    6.2089 
    0.4959 	   86.9860 	    2.0000 	   51.0000 	    6.2469 
    0.4501 	   87.0560 	    2.0000 	   51.0000 	    6.2819 
    0.3738 	   87.1220 	    2.0000 	   51.0000 	    6.3149 
    0.4501 	   87.1880 	    2.0000 	   51.0000 	    6.3479 
    0.5264 	   87.2600 	    2.0000 	   51.0000 	    6.3839 
    0.4959 	   87.3320 	    2.0000 	   51.0000 	    6.4199 
    0.4807 	   87.4080 	    2.0000 	   51.0000 	    6.4579 
    0.5722 	   87.4860 	    2.0000 	   51.0000 	    6.4969 
    0.4501 	   87.5620 	    2.0000 	   51.0000 	    6.5349 
    0.5417 	   87.6380 	    2.0000 	   51.0000 	    6.5729 
    0.6180 	   87.7120 	    2.0000 	   51.0000 	    6.6099 
    0.6027 	   87.8100 	    2.0000 	   51.0000 	    6.6589 
    0.6332 	   87.8940 	    2.0000 	   51.0000 	    6.7009 
    0.4654 	   87.9700 	    2.0000 	   51.0000 	    6.7389 
    0.4044 	   88.0440 	    2.0000 	   51.0000 	    6.7759 
    0.4959 	   88.1180 	    2.0000 	   51.0000 	    6.8129 
    0.6332 	   88.1980 	    2.0000 	   51.0000 	    6.8529 
    0.5112 	   88.2760 	    2.0000 	   51.0000 	    6.8919 
    0.4501 	   88.3480 	    2.0000 	   51.0000 	    6.9279 
    0.6180 	   88.4180 	    2.0000 	   51.0000 	    6.9629 
    0.4349 	   88.4840 	    2.0000 	   51.0000 	    6.9959 
    0.5875 	   88.5560 	    2.0000 	   51.0000 	    7.0319 
    0.5570 	   88.6200 	    2.0000 	   51.0000 	    7.0639 
    0.4807 	   88.6900 	    2.0000 	   51.0000 	    7.0989 
    0.4044 	   88.7660 	    2.0000 	   51.0000 	    7.1369 
    0.4501 	   88.8440 	    2.0000 	   51.0000 	    7.1759 
    0.5264 	   88.9200 	    2.0000 	   51.0000 	    7.2139 
    0.4654 	   88.9960 	    2.0000 	   51.0000 	    7.2519 
    0.6943 	   89.0740 	    2.0000 	   51.0000 	    7.2909 
    0.4196 	   89.1500 	    2.0000 	   51.0000 	    7.3289 
    0.4807 	   89.2260 	    2.0000 	   51.0000 	    7.3669 
    0.3891 	   89.3040 	    2.0000 	   51.0000 	    7.4059 
    0.5417 	   89.3800 	    2.0000 	   51.0000 	    7.4439 
    0.4959 	   89.4580 	    2.0000 	   51.0000 	    7.4829 
    0.4349 	   89.5340 	    2.0000 	   51.0000 	    7.5209 
    0.5875 	   89.6120 	    2.0000 	   51.0000 	    7.5600 
    0.5112 	   89.6880 	    2.0000 	   51.0000 	    7.5980 
    0.5264 	   89.7640 	    2.0000 	   51.0000 	    7.6360 
    0.4196 	   89.8380 	    2.0000 	   51.0000 	    7.6730 
    0.5112 	   89.9160 	    2.0000 	   51.0000 	    7.7120 
    0.4807 	   89.9960 	    2.0000 	   51.0000 	    7.7520 
    0.2670 	   90.0720 	    2.0000 	   51.0000 	    7.7900 
    0.2060 	   90.1460 	    2.0000 	   51.0000 	    7.8270 
    0.4196 	   90.2320 	    2.0000 	   51.0000 	    7.8700 
    0.5875 	   90.3060 	    2.0000 	   51.0000 	    7.9070 
    0.1297 	   90.3820 	    2.0000 	   51.0000 	    7.9450 
    0.4349 	   90.4580 	    2.0000 	   51.0000 	    7.9830 
    0.4959 	   90.5320 	    2.0000 	   51.0000 	    8.0200 
    0.3891 	   90.6080 	    2.0000 	   51.0000 	    8.0580 
    0.5417 	   90.6840 	    2.0000 	   51.0000 	    8.0960 
    0.6027 	   90.7640 	    2.0000 	   51.0000 	    8.1360 
    0.3281 	   90.8420 	    2.0000 	   51.0000 	    8.1750 
    0.3281 	   90.9200 	    2.0000 	   51.0000 	    8.2140 
    0.4807 	   90.9980 	    2.0000 	   51.0000 	    8.2530 
    0.4807 	   91.0720 	    2.0000 	   51.0000 	    8.2900 
    0.6943 	   91.1480 	    2.0000 	   51.0000 	    8.3280 
    0.5112 	   91.2200 	    2.0000 	   51.0000 	    8.3640 
    0.2365 	   91.2960 	    2.0000 	   51.0000 	    8.4020 
    0.4196 	   91.3680 	    2.0000 	   51.0000 	    8.4380 
    0.0229 	   91.4460 	    2.0000 	   51.0000 	    8.4770 
    0.4501 	   91.5220 	    2.0000 	   51.0000 	    8.5150 
    0.4349 	   91.6000 	    2.0000 	   51.0000 	    8.5540 
    0.6332 	   91.6780 	    2.0000 	   51.0000 	    8.5930 
    0.3738 	   91.7560 	    2.0000 	   51.0000 	    8.6320 
    0.1450 	   91.8320 	    2.0000 	   51.0000 	    8.6700 
    0.5112 	   91.9080 	    2.0000 	   51.0000 	    8.7080 
    0.4654 	   91.9860 	    2.0000 	   51.0000 	    8.7470 
    0.5112 	   92.0620 	    2.0000 	   51.0000 	    8.7850 
    0.3586 	   92.1380 	    2.0000 	   51.0000 	    8.8230 
    0.5264 	   92.2120 	    2.0000 	   51.0000 	    8.8600 
    0.3433 	   92.2800 	    2.0000 	   51.0000 	    8.8940 
    0.4807 	   92.3480 	    2.0000 	   51.0000 	    8.9280 
    0.4959 	   92.4180 	    2.0000 	   51.0000 	    8.9630 
    0.3128 	   92.4900 	    2.0000 	   51.0000 	    8.9990 
    0.3281 	   92.5600 	    2.0000 	   51.0000 	    9.0340 
    0.4196 	   92.6280 	    2.0000 	   51.0000 	    9.0680 
    0.6943 	   92.6980 	    2.0000 	   51.0000 	    9.1030 
    0.5875 	   92.7660 	    2.0000 	   51.0000 	    9.1370 
    0.4349 	   92.8340 	    2.0000 	   51.0000 	    9.1710 
    0.4349 	   92.9060 	    2.0000 	   51.0000 	    9.2070 
    0.5417 	   92.9780 	    2.0000 	   51.0000 	    9.2430 
    0.5264 	   93.0460 	    2.0000 	   51.0000 	    9.2771 
    0.4349 	   93.1200 	    2.0000 	   51.0000 	    9.3141 
    0.5112 	   93.1940 	    2.0000 	   51.0000 	    9.3511 
    0.5264 	   93.2620 	    2.0000 	   51.0000 	    9.3851 
    0.5417 	   93.3300 	    2.0000 	   51.0000 	    9.4191 
    0.4501 	   93.3980 	    2.0000 	   51.0000 	    9.4531 
    0.3128 	   93.4640 	    2.0000 	   51.0000 	    9.4861 
    0.4501 	   93.5400 	    2.0000 	   51.0000 	    9.5241 
    0.4807 	   93.6160 	    2.0000 	   51.0000 	    9.5621 
    0.4349 	   93.6980 	    2.0000 	   51.0000 	    9.6031 
    0.2060 	   93.7740 	    2.0000 	   51.0000 	    9.6411 
    0.3738 	   93.8520 	    2.0000 	   51.0000 	    9.6801 
    0.5417 	   93.9300 	    2.0000 	   51.0000 	    9.7191 
    0.6943 	   94.0040 	    2.0000 	   51.0000 	    9.7561 
    0.3891 	   94.0800 	    2.0000 	   51.0000 	    9.7941 
    0.5264 	   94.1640 	    2.0000 	   51.0000 	    9.8361 
    0.3433 	   94.2380 	    2.0000 	   51.0000 	    9.8731 
    0.4654 	   94.3160 	    2.0000 	   51.0000 	    9.9121 
    0.5722 	   94.3960 	    2.0000 	   51.0000 	    9.9521 
    0.4654 	   94.4740 	    2.0000 	   51.0000 	    9.9911 
    0.4959 	   94.5520 	    2.0000 	   51.0000 	   10.0291 
    0.4196 	   94.6340 	    2.0000 	   51.0000 	   10.0711 
    0.4959 	   94.7100 	    2.0000 	   51.0000 	   10.1091 
    0.4807 	   94.7820 	    2.0000 	   51.0000 	   10.1451 
    0.5417 	   94.8620 	    2.0000 	   51.0000 	   10.1851 
    0.1450 	   94.9360 	    2.0000 	   51.0000 	   10.2221 
    0.4196 	   95.0180 	    2.0000 	   51.0000 	   10.2631 
    0.4044 	   95.0940 	    2.0000 	   51.0000 	   10.3011 
    0.3281 	   95.1740 	    2.0000 	   51.0000 	   10.3401 
    0.4044 	   95.2500 	    2.0000 	   51.0000 	   10.3791 
    0.4501 	   95.3280 	    2.0000 	   51.0000 	   10.4181 
    0.4501 	   95.4060 	    2.0000 	   51.0000 	   10.4571 
    0.3891 	   95.4820 	    2.0000 	   51.0000 	   10.4951 
    0.4959 	   95.5560 	    2.0000 	   51.0000 	   10.5321 
    0.5570 	   95.6360 	    2.0000 	   51.0000 	   10.5721 
    0.3281 	   95.7120 	    2.0000 	   51.0000 	   10.6101 
    0.3891 	   95.8080 	    2.0000 	   51.0000 	   10.6581 
    0.2976 	   95.8880 	    2.0000 	   51.0000 	   10.6981 
    0.4196 	   95.9680 	    2.0000 	   51.0000 	   10.7381 
    0.5264 	   96.0420 	    2.0000 	   51.0000 	   10.7751 
    0.4349 	   96.1180 	    2.0000 	   51.0000 	   10.8131 
    0.3586 	   96.2020 	    2.0000 	   51.0000 	   10.8551 
    0.4044 	   96.2800 	    2.0000 	   51.0000 	   10.8941 
    0.2670 	   96.3560 	    2.0000 	   51.0000 	   10.9321 
    0.4959 	   96.4380 	    2.0000 	   51.0000 	   10.9731 
    0.3586 	   96.5140 	    2.0000 	   51.0000 	   11.0111 
    0.4044 	   96.5880 	    2.0000 	   51.0000 	   11.0482 
    0.4807 	   96.6680 	    2.0000 	   51.0000 	   11.0882 
    0.1144 	   96.7420 	    2.0000 	   51.0000 	   11.1252 
    0.2976 	   96.8260 	    2.0000 	   51.0000 	   11.1672 
    0.4196 	   96.9020 	    2.0000 	   51.0000 	   11.2052 
    0.4501 	   96.9800 	    2.0000 	   51.0000 	   11.2442 
    0.5417 	   97.0560 	    2.0000 	   51.0000 	   11.2822 
    0.4196 	   97.1340 	    2.0000 	   51.0000 	   11.3212 
    0.3586 	   97.2080 	    2.0000 	   51.0000 	   11.3582 
    0.3433 	   97.2860 	    2.0000 	   51.0000 	   11.3972 
    0.4654 	   97.3620 	    2.0000 	   51.0000 	   11.4352 
    0.3433 	   97.4380 	    2.0000 	   51.0000 	   11.4732 
    0.3738 	   97.5160 	    2.0000 	   51.0000 	   11.5122 
    0.3738 	   97.5900 	    2.0000 	   51.0000 	   11.5492 
    0.3891 	   97.6680 	    2.0000 	   51.0000 	   11.5882 
    0.4196 	   97.7520 	    2.0000 	   51.0000 	   11.6302 
    0.5570 	   97.8300 	    2.0000 	   51.0000 	   11.6692 
    0.5722 	   97.9060 	    2.0000 	   51.0000 	   11.7072 
    0.5264 	   97.9860 	    2.0000 	   51.0000 	   11.7472 
    0.4349 	   98.0640 	    2.0000 	   51.0000 	   11.7862 
    0.3586 	   98.1420 	    2.0000 	   51.0000 	   11.8252 
    0.5570 	   98.2280 	    2.0000 	   51.0000 	   11.8682 
    0.3433 	   98.3020 	    2.0000 	   51.0000 	   11.9052 
    0.4349 	   98.3800 	    2.0000 	   51.0000 	   11.9442 
    0.4196 	   98.4600 	    2.0000 	   51.0000 	   11.9842 
    0.4044 	   98.5420 	    2.0000 	   51.0000 	   12.0252 
    0.3433 	   98.6180 	    2.0000 	   51.0000 	   12.0632 
    0.1602 	   98.6960 	    2.0000 	   51.0000 	   12.1022 
    0.3433 	   98.7740 	    2.0000 	   51.0000 	   12.1412 
    0.4044 	   98.8520 	    2.0000 	   51.0000 	   12.1802 
    0.3891 	   98.9320 	    2.0000 	   51.0000 	   12.2202 
    0.6943 	   99.0060 	    2.0000 	   51.0000 	   12.2572 
    0.4349 	   99.0860 	    2.0000 	   51.0000 	   12.2972 
    0.4196 	   99.1660 	    2.0000 	   51.0000 	   12.3372 
    0.3891 	   99.2420 	    2.0000 	   51.0000 	   12.3752 
    0.4654 	   99.3200 	    2.0000 	   51.0000 	   12.4142 
    0.4807 	   99.4000 	    2.0000 	   51.0000 	   12.4542 
    0.4959 	   99.4780 	    2.0000 	   51.0000 	   12.4932 
    0.5112 	   99.5560 	    2.0000 	   51.0000 	   12.5322 
    0.4196 	   99.6380 	    2.0000 	   51.0000 	   12.5732 
    0.3128 	   99.7140 	    2.0000 	   51.0000 	   12.6112 
    0.5112 	   99.8080 	    2.0000 	   51.0000 	   12.6582 
    0.3281 	   99.8960 	    2.0000 	   51.0000 	   12.7022 
    0.3433 	   99.9720 	    2.0000 	   51.0000 	   12.7402 
    0.4654 	  100.0520 	    2.0000 	   51.0000 	   12.7803 
    0.2823 	  100.1280 	    2.0000 	   51.0000 	   12.8183 
    0.3738 	  100.2160 	    2.0000 	   51.0000 	   12.8623 
    0.2976 	  100.2900 	    2.0000 	   51.0000 	   12.8993 
    0.3738 	  100.3680 	    2.0000 	   51.0000 	   12.9383 
    0.4196 	  100.4440 	    2.0000 	   51.0000 	   12.9763 
    0.4807 	  100.5240 	    2.0000 	   51.0000 	   13.0163 
    0.2976 	  100.6000 	    2.0000 	   51.0000 	   13.0543 
    0.1144 	  100.6740 	    2.0000 	   51.0000 	   13.0913 
    0.3281 	  100.7540 	    2.0000 	   51.0000 	   13.1313 
    0.3281 	  100.8360 	    2.0000 	   51.0000 	   13.1723 
    0.3738 	  100.9120 	    2.0000 	   51.0000 	   13.2103 
    0.2823 	  100.9900 	    2.0000 	   51.0000 	   13.2493 
    0.3281 	  101.0720 	    2.0000 	   51.0000 	   13.2903 
    0.3586 	  101.1460 	    2.0000 	   51.0000 	   13.3273 
    0.2670 	  101.2240 	    2.0000 	   51.0000 	   13.3663 
    0.5112 	  101.3060 	    2.0000 	   51.0000 	   13.4073 
    0.1907 	  101.3860 	    2.0000 	   51.0000 	   13.4473 
    0.4654 	  101.4640 	    2.0000 	   51.0000 	   13.4863 
    0.3891 	  101.5400 	    2.0000 	   51.0000 	   13.5243 
    0.4044 	  101.6160 	    2.0000 	   51.0000 	   13.5623 
    0.4349 	  101.6900 	    2.0000 	   51.0000 	   13.5993 
    0.4044 	  101.7640 	    2.0000 	   51.0000 	   13.6363 
    0.3738 	  101.8340 	    2.0000 	   51.0000 	   13.6703 
    0.3738 	  101.9120 	    2.0000 	   51.0000 	   13.7103 
    0.4807 	  101.9900 	    2.0000 	   51.0000 	   13.7493 
    0.3128 	  102.0680 	    2.0000 	   51.0000 	   13.7883 
    0.4654 	  102.1500 	    2.0000 	   51.0000 	   13.8293 
    0.4349 	  102.2260 	    2.0000 	   51.0000 	   13.8673 
    0.4349 	  102.3100 	    2.0000 	   51.0000 	   13.9093 
    0.3128 	  102.3880 	    2.0000 	   51.0000 	   13.9483 
    0.2213 	  102.4620 	    2.0000 	   51.0000 	   13.9853 
    0.4501 	  102.5380 	    2.0000 	   51.0000 	   14.0233 
    0.4044 	  102.6180 	    2.0000 	   51.0000 	   14.0623 
    0.1144 	  102.7020 	    2.0000 	   51.0000 	   14.1043 
    0.3433 	  102.7800 	    2.0000 	   51.0000 	   14.1433 
    0.2365 	  102.8600 	    2.0000 	   51.0000 	   14.1833 
    0.4044 	  102.9360 	    2.0000 	   51.0000 	   14.2213 
    0.4044 	  103.0140 	    2.0000 	   51.0000 	   14.2603 
    0.3281 	  103.0920 	    2.0000 	   51.0000 	   14.2993 
    0.2060 	  103.1740 	    2.0000 	   51.0000 	   14.3403 
    0.4959 	  103.2500 	    2.0000 	   51.0000 	   14.3783 
    0.4654 	  103.3320 	    2.0000 	   51.0000 	   14.4193 
    0.4196 	  103.4120 	    2.0000 	   51.0000 	   14.4593 
    0.3128 	  103.4940 	    2.0000 	   51.0000 	   14.5003 
    0.3738 	  103.5780 	    2.0000 	   51.0000 	   14.5424 
    0.3281 	  103.6580 	    2.0000 	   51.0000 	   14.5824 
    0.3891 	  103.7340 	    2.0000 	   51.0000 	   14.6204 
    0.2518 	  103.8120 	    2.0000 	   51.0000 	   14.6594 
    0.2670 	  103.8920 	    2.0000 	   51.0000 	   14.6994 
   -0.0076 	  103.9720 	    2.0000 	   51.0000 	   14.7394 
    0.4349 	  104.0520 	    2.0000 	   51.0000 	   14.7794 
    0.4044 	  104.2260 	    2.0000 	   51.0000 	   14.8664 
    0.2060 	  104.3140 	    2.0000 	   51.0000 	   14.9104 
    0.3433 	  104.3900 	    2.0000 	   51.0000 	   14.9484 
    0.4044 	  104.4640 	    2.0000 	   51.0000 	   14.9854 
    0.3281 	  104.5420 	    2.0000 	   51.0000 	   15.0244 
    0.2976 	  104.6160 	    2.0000 	   51.0000 	   15.0614 
    0.3281 	  104.6940 	    2.0000 	   51.0000 	   15.1004 
    0.4654 	  104.7780 	    2.0000 	   51.0000 	   15.1424 
    0.4959 	  104.8580 	    2.0000 	   51.0000 	   15.1824 
    0.3738 	  104.9360 	    2.0000 	   51.0000 	   15.2214 
    0.4044 	  105.0180 	    2.0000 	   51.0000 	   15.2624 
    0.4654 	  105.0920 	    2.0000 	   51.0000 	   15.2994 
    0.2670 	  105.1800 	    2.0000 	   51.0000 	   15.3434 
    0.4959 	  105.2580 	    2.0000 	   51.0000 	   15.3824 
    0.3738 	  105.3380 	    2.0000 	   51.0000 	   15.4224 
    0.2365 	  105.4140 	    2.0000 	   51.0000 	   15.4604 
    0.3738 	  105.4920 	    2.0000 	   51.0000 	   15.4994 
    0.3128 	  105.5720 	    2.0000 	   51.0000 	   15.5394 
    0.3433 	  105.6500 	    2.0000 	   51.0000 	   15.5784 
    0.1297 	  105.7280 	    2.0000 	   51.0000 	   15.6174 
    0.3433 	  105.8040 	    2.0000 	   51.0000 	   15.6554 
    0.3128 	  105.8860 	    2.0000 	   51.0000 	   15.6964 
    0.2365 	  105.9640 	    2.0000 	   51.0000 	   15.7354 
    0.3433 	  106.0440 	    2.0000 	   51.0000 	   15.7754 
    0.4807 	  106.1220 	    2.0000 	   51.0000 	   15.8144 
    0.2976 	  106.2040 	    2.0000 	   51.0000 	   15.8554 
    0.2213 	  106.2800 	    2.0000 	   51.0000 	   15.8934 
    0.4501 	  106.3620 	    2.0000 	   51.0000 	   15.9334 
    0.3128 	  106.4380 	    2.0000 	   51.0000 	   15.9724 
    0.3281 	  106.5160 	    2.0000 	   51.0000 	   16.0114 
    0.2823 	  106.5980 	    2.0000 	   51.0000 	   16.0524 
    0.4959 	  106.6760 	    2.0000 	   51.0000 	   16.0914 
    0.3891 	  106.7520 	    2.0000 	   51.0000 	   16.1294 
    0.3891 	  106.8300 	    2.0000 	   51.0000 	   16.1684 
    0.3433 	  106.9080 	    2.0000 	   51.0000 	   16.2074 
    0.4349 	  106.9840 	    2.0000 	   51.0000 	   16.2454 
    0.5264 	  107.0640 	    2.0000 	   51.0000 	   16.2854 
    0.4654 	  107.1440 	    2.0000 	   51.0000 	   16.3255 
    0.4959 	  107.2220 	    2.0000 	   51.0000 	   16.3635 
    0.3128 	  107.3040 	    2.0000 	   51.0000 	   16.4055 
    0.4044 	  107.3820 	    2.0000 	   51.0000 	   16.4445 
    0.4654 	  107.4600 	    2.0000 	   51.0000 	   16.4835 
    0.3281 	  107.5380 	    2.0000 	   51.0000 	   16.5225 
    0.3891 	  107.6100 	    2.0000 	   51.0000 	   16.5585 
    0.5264 	  107.6880 	    2.0000 	   51.0000 	   16.5975 
    0.3586 	  107.7620 	    2.0000 	   51.0000 	   16.6345 
    0.3433 	  107.8420 	    2.0000 	   51.0000 	   16.6745 
    0.2518 	  107.9200 	    2.0000 	   51.0000 	   16.7135 
    0.3891 	  107.9920 	    2.0000 	   51.0000 	   16.7495 
    0.5264 	  108.0740 	    2.0000 	   51.0000 	   16.7905 
    0.3433 	  108.1520 	    2.0000 	   51.0000 	   16.8295 
    0.2518 	  108.2300 	    2.0000 	   51.0000 	   16.8685 
    0.4959 	  108.3040 	    2.0000 	   51.0000 	   16.9055 
    0.2976 	  108.3880 	    2.0000 	   51.0000 	   16.9475 
    0.2670 	  108.4680 	    2.0000 	   51.0000 	   16.9875 
    0.4196 	  108.5420 	    2.0000 	   51.0000 	   17.0245 
    0.4501 	  108.6240 	    2.0000 	   51.0000 	   17.0655 
    0.3738 	  108.7020 	    2.0000 	   51.0000 	   17.1045 
    0.2823 	  108.7800 	    2.0000 	   51.0000 	   17.1435 
    0.3281 	  108.8580 	    2.0000 	   51.0000 	   17.1825 
    0.2365 	  108.9380 	    2.0000 	   51.0000 	   17.2225 
    0.4501 	  109.0180 	    2.0000 	   51.0000 	   17.2625 
    0.4349 	  109.0980 	    2.0000 	   51.0000 	   17.3025 
    0.3128 	  109.1820 	    2.0000 	   51.0000 	   17.3445 
    0.3586 	  109.2640 	    2.0000 	   51.0000 	   17.3855 
    0.4196 	  109.3460 	    2.0000 	   51.0000 	   17.4265 
    0.2976 	  109.4220 	    2.0000 	   51.0000 	   17.4645 
    0.3433 	  109.5020 	    2.0000 	   51.0000 	   17.5045 
    0.3738 	  109.5780 	    2.0000 	   51.0000 	   17.5425 
    0.0381 	  109.6540 	    2.0000 	   51.0000 	   17.5805 
    0.3128 	  109.7320 	    2.0000 	   51.0000 	   17.6195 
    0.3281 	  109.8100 	    2.0000 	   51.0000 	   17.6585 
    0.2976 	  109.8860 	    2.0000 	   51.0000 	   17.6965 
    0.4196 	  109.9620 	    2.0000 	   51.0000 	   17.7345 
    0.3128 	  110.0340 	    2.0000 	   51.0000 	   17.7705 
    0.0076 	  110.1120 	    2.0000 	   51.0000 	   17.8095 
    0.3281 	  110.1960 	    2.0000 	   51.0000 	   17.8515 
    0.2365 	  110.2780 	    2.0000 	   51.0000 	   17.8925 
    0.4807 	  110.3560 	    2.0000 	   51.0000 	   17.9315 
    0.2976 	  110.4380 	    2.0000 	   51.0000 	   17.9725 
    0.3586 	  110.5180 	    2.0000 	   51.0000 	   18.0126 
    0.2823 	  110.5960 	    2.0000 	   51.0000 	   18.0516 
    0.3586 	  110.6780 	    2.0000 	   51.0000 	   18.0926 
    0.1450 	  110.7580 	    2.0000 	   51.0000 	   18.1326 
    0.4959 	  110.8320 	    2.0000 	   51.0000 	   18.1696 
    0.1907 	  110.9100 	    2.0000 	   51.0000 	   18.2086 
    0.5112 	  110.9860 	    2.0000 	   51.0000 	   18.2466 
    0.2976 	  111.0700 	    2.0000 	   51.0000 	   18.2886 
    0.3281 	  111.1440 	    2.0000 	   51.0000 	   18.3256 
    0.5112 	  111.2220 	    2.0000 	   51.0000 	   18.3646 
    0.3738 	  111.3000 	    2.0000 	   51.0000 	   18.4036 
    0.3433 	  111.3820 	    2.0000 	   51.0000 	   18.4446 
    0.3128 	  111.4580 	    2.0000 	   51.0000 	   18.4826 
    0.2365 	  111.5400 	    2.0000 	   51.0000 	   18.5236 
    0.2823 	  111.6160 	    2.0000 	   51.0000 	   18.5616 
    0.3586 	  111.6980 	    2.0000 	   51.0000 	   18.6026 
    0.3586 	  111.8100 	    2.0000 	   51.0000 	   18.6586 
    0.4501 	  111.8800 	    2.0000 	   51.0000 	   18.6936 
    0.3433 	  111.9560 	    2.0000 	   51.0000 	   18.7316 
    0.1907 	  112.0360 	    2.0000 	   51.0000 	   18.7716 
    0.3586 	  112.1140 	    2.0000 	   51.0000 	   18.8106 
    0.2060 	  112.1920 	    2.0000 	   51.0000 	   18.8496 
    0.4196 	  112.2680 	    2.0000 	   51.0000 	   18.8876 
    0.3128 	  112.3460 	    2.0000 	   51.0000 	   18.9266 
    0.5112 	  112.4240 	    2.0000 	   51.0000 	   18.9656 
    0.4196 	  112.5020 	    2.0000 	   51.0000 	   19.0046 
    0.3281 	  112.5800 	    2.0000 	   51.0000 	   19.0436 
    0.3891 	  112.6680 	    2.0000 	   51.0000 	   19.0876 
    0.4044 	  112.7480 	    2.0000 	   51.0000 	   19.1276 
    0.3128 	  112.8260 	    2.0000 	   51.0000 	   19.1666 
    0.3891 	  112.9040 	    2.0000 	   51.0000 	   19.2056 
    0.6027 	  112.9840 	    2.0000 	   51.0000 	   19.2456 
    0.1755 	  113.0620 	    2.0000 	   51.0000 	   19.2846 
    0.2670 	  113.1420 	    2.0000 	   51.0000 	   19.3246 
    0.3891 	  113.2220 	    2.0000 	   51.0000 	   19.3646 
    0.4807 	  113.3000 	    2.0000 	   51.0000 	   19.4036 
    0.3891 	  113.3820 	    2.0000 	   51.0000 	   19.4446 
    0.3128 	  113.4580 	    2.0000 	   51.0000 	   19.4826 
    0.3281 	  113.5360 	    2.0000 	   51.0000 	   19.5216 
    0.3891 	  113.6100 	    2.0000 	   51.0000 	   19.5586 
    0.3738 	  113.6920 	    2.0000 	   51.0000 	   19.5996 
    0.3586 	  113.7680 	    2.0000 	   51.0000 	   19.6376 
   -0.0381 	  113.8460 	    2.0000 	   51.0000 	   19.6766 
    0.4959 	  113.9240 	    2.0000 	   51.0000 	   19.7156 
    0.2976 	  114.0000 	    2.0000 	   51.0000 	   19.7536 
    0.2976 	  114.0800 	    2.0000 	   51.0000 	   19.7937 
    0.3128 	  114.1600 	    2.0000 	   51.0000 	   19.8337 
    0.3128 	  114.2420 	    2.0000 	   51.0000 	   19.8747 
    0.3281 	  114.3260 	    2.0000 	   51.0000 	   19.9167 
    0.3738 	  114.4020 	    2.0000 	   51.0000 	   19.9547 
    0.3281 	  114.4800 	    2.0000 	   51.0000 	   19.9937 
    0.4654 	  114.5600 	    2.0000 	   51.0000 	   20.0337 
    0.3281 	  114.6420 	    2.0000 	   51.0000 	   20.0747 
    0.2670 	  114.7240 	    2.0000 	   51.0000 	   20.1147 
    0.4349 	  114.8020 	    2.0000 	   51.0000 	   20.1547 
    0.1602 	  114.8820 	    2.0000 	   51.0000 	   20.1947 
    0.3586 	  114.9620 	    2.0000 	   51.0000 	   20.2347 
    0.4044 	  115.0400 	    2.0000 	   51.0000 	   20.2737 
    0.2213 	  115.1200 	    2.0000 	   51.0000 	   20.3137 
    0.2213 	  115.2080 	    2.0000 	   51.0000 	   20.3577 
    0.2518 	  115.2900 	    2.0000 	   51.0000 	   20.3987 
    0.3891 	  115.3700 	    2.0000 	   51.0000 	   20.4387 
    0.3891 	  115.4560 	    2.0000 	   51.0000 	   20.4817 
    0.2365 	  115.5340 	    2.0000 	   51.0000 	   20.5207 
    0.3128 	  115.6140 	    2.0000 	   51.0000 	   20.5607 
    0.2823 	  115.6940 	    2.0000 	   51.0000 	   20.6007 
    0.3281 	  115.7740 	    2.0000 	   51.0000 	   20.6407 
    0.3281 	  115.8560 	    2.0000 	   51.0000 	   20.6817 
    0.4196 	  115.9400 	    2.0000 	   51.0000 	   20.7237 
    0.3738 	  116.0180 	    2.0000 	   51.0000 	   20.7627 
    0.4807 	  116.0980 	    2.0000 	   51.0000 	   20.8027 
    0.3433 	  116.1800 	    2.0000 	   51.0000 	   20.8437 
    0.2518 	  116.2560 	    2.0000 	   51.0000 	   20.8817 
    0.2518 	  116.3340 	    2.0000 	   51.0000 	   20.9207 
    0.2518 	  116.4200 	    2.0000 	   51.0000 	   20.9637 
    0.2060 	  116.5000 	    2.0000 	   51.0000 	   21.0037 
    0.4196 	  116.5820 	    2.0000 	   51.0000 	   21.0447 
    0.4501 	  116.6600 	    2.0000 	   51.0000 	   21.0837 
    0.3433 	  116.7340 	    2.0000 	   51.0000 	   21.1207 
    0.2670 	  116.8140 	    2.0000 	   51.0000 	   21.1607 
    0.2518 	  116.8920 	    2.0000 	   51.0000 	   21.1997 
    0.4349 	  116.9660 	    2.0000 	   51.0000 	   21.2367 
    0.3738 	  117.0480 	    2.0000 	   51.0000 	   21.2777 
    0.1907 	  117.1320 	    2.0000 	   51.0000 	   21.3197 
    0.4959 	  117.2120 	    2.0000 	   51.0000 	   21.3597 
    0.3281 	  117.2880 	    2.0000 	   51.0000 	   21.3977 
    0.2976 	  117.3680 	    2.0000 	   51.0000 	   21.4377 
    0.3738 	  117.4440 	    2.0000 	   51.0000 	   21.4757 
    0.3433 	  117.5240 	    2.0000 	   51.0000 	   21.5158 
    0.2976 	  117.6060 	    2.0000 	   51.0000 	   21.5568 
    0.2213 	  117.6900 	    2.0000 	   51.0000 	   21.5988 
    0.4196 	  117.7700 	    2.0000 	   51.0000 	   21.6388 
    0.2823 	  117.8460 	    2.0000 	   51.0000 	   21.6768 
    0.3281 	  117.9260 	    2.0000 	   51.0000 	   21.7168 
    0.2365 	  118.0040 	    2.0000 	   51.0000 	   21.7558 
    0.3891 	  118.0880 	    2.0000 	   51.0000 	   21.7978 
    0.3586 	  118.1680 	    2.0000 	   51.0000 	   21.8378 
    0.1907 	  118.2480 	    2.0000 	   51.0000 	   21.8778 
    0.2518 	  118.3260 	    2.0000 	   51.0000 	   21.9168 
    0.3586 	  118.4040 	    2.0000 	   51.0000 	   21.9558 
    0.2213 	  118.4900 	    2.0000 	   51.0000 	   21.9988 
    0.3738 	  118.5700 	    2.0000 	   51.0000 	   22.0388 
    0.2365 	  118.6520 	    2.0000 	   51.0000 	   22.0798 
    0.1450 	  118.7320 	    2.0000 	   51.0000 	   22.1198 
    0.2060 	  118.8160 	    2.0000 	   51.0000 	   22.1618 
    0.3738 	  118.8960 	    2.0000 	   51.0000 	   22.2018 
    0.3281 	  118.9740 	    2.0000 	   51.0000 	   22.2408 
    0.3128 	  119.0560 	    2.0000 	   51.0000 	   22.2818 
    0.3738 	  119.1360 	    2.0000 	   51.0000 	   22.3218 
    0.4044 	  119.2180 	    2.0000 	   51.0000 	   22.3628 
    0.2060 	  119.3020 	    2.0000 	   51.0000 	   22.4048 
    0.1602 	  119.3820 	    2.0000 	   51.0000 	   22.4448 
    0.4044 	  119.4620 	    2.0000 	   51.0000 	   22.4848 
    0.1450 	  119.5400 	    2.0000 	   51.0000 	   22.5238 
    0.4501 	  119.6220 	    2.0000 	   51.0000 	   22.5648 
    0.3128 	  119.7040 	    2.0000 	   51.0000 	   22.6058 
    0.3128 	  119.7800 	    2.0000 	   51.0000 	   22.6438 
    0.2976 	  119.8580 	    2.0000 	   51.0000 	   22.6828 
    0.2518 	  119.9420 	    2.0000 	   51.0000 	   22.7248 
    0.4196 	  120.0280 	    2.0000 	   51.0000 	   22.7678 
    0.2976 	  120.1060 	    2.0000 	   51.0000 	   22.8068 
    0.2976 	  120.2000 	    2.0000 	   51.0000 	   22.8538 
    0.3281 	  120.2820 	    2.0000 	   51.0000 	   22.8948 
    0.4349 	  120.3580 	    2.0000 	   51.0000 	   22.9328 
    0.2060 	  120.4360 	    2.0000 	   51.0000 	   22.9718 
    0.2365 	  120.5200 	    2.0000 	   51.0000 	   23.0138 
    0.3128 	  120.5980 	    2.0000 	   51.0000 	   23.0528 
    0.2976 	  120.6820 	    2.0000 	   51.0000 	   23.0948 
    0.3738 	  120.7620 	    2.0000 	   51.0000 	   23.1348 
    0.2823 	  120.8400 	    2.0000 	   51.0000 	   23.1738 
    0.3433 	  120.9200 	    2.0000 	   51.0000 	   23.2138 
    0.3586 	  120.9960 	    2.0000 	   51.0000 	   23.2519 
    0.1907 	  121.0780 	    2.0000 	   51.0000 	   23.2929 
    0.2670 	  121.1560 	    2.0000 	   51.0000 	   23.3319 
    0.3128 	  121.2360 	    2.0000 	   51.0000 	   23.3719 
    0.2518 	  121.3160 	    2.0000 	   51.0000 	   23.4119 
    0.3891 	  121.3920 	    2.0000 	   51.0000 	   23.4499 
    0.3128 	  121.4700 	    2.0000 	   51.0000 	   23.4889 
    0.2365 	  121.5540 	    2.0000 	   51.0000 	   23.5309 
    0.3433 	  121.6320 	    2.0000 	   51.0000 	   23.5699 
    0.4807 	  121.7120 	    2.0000 	   51.0000 	   23.6099 
    0.4044 	  121.7940 	    2.0000 	   51.0000 	   23.6509 
    0.2976 	  121.8740 	    2.0000 	   51.0000 	   23.6909 
    0.3128 	  121.9540 	    2.0000 	   51.0000 	   23.7309 
    0.4501 	  122.0380 	    2.0000 	   51.0000 	   23.7729 
    0.4044 	  122.1180 	    2.0000 	   51.0000 	   23.8129 
    0.3586 	  122.1960 	    2.0000 	   51.0000 	   23.8519 
    0.1144 	  122.2780 	    2.0000 	   51.0000 	   23.8929 
    0.3891 	  122.3580 	    2.0000 	   51.0000 	   23.9329 
    0.1907 	  122.4360 	    2.0000 	   51.0000 	   23.9719 
