Thayer School of Engineering        Instron 4442 Mechanical Testing System
7/8/2018 11:14:45 PM

  Force (N)	Extension (mm)	Not Used	Not Used	Not Used	     Hour	    Minute	    Second
    0.3281 	    0.5085 	   23.0000 	   15.0000 	   33.0441 
    0.4196 	    0.5245 	   23.0000 	   15.0000 	   33.0761 
    0.4196 	    0.5570 	   23.0000 	   15.0000 	   33.1411 
    0.3891 	    0.5870 	   23.0000 	   15.0000 	   33.2011 
    0.4044 	    0.6025 	   23.0000 	   15.0000 	   33.2322 
    0.6027 	    0.6190 	   23.0000 	   15.0000 	   33.2652 
    0.4501 	    0.6340 	   23.0000 	   15.0000 	   33.2952 
    0.4501 	    0.6615 	   23.0000 	   15.0000 	   33.3502 
    0.3586 	    0.6885 	   23.0000 	   15.0000 	   33.4042 
    0.4501 	    0.7050 	   23.0000 	   15.0000 	   33.4372 
    0.4196 	    0.7335 	   23.0000 	   15.0000 	   33.4942 
    0.3891 	    0.7600 	   23.0000 	   15.0000 	   33.5472 
    0.4501 	    0.7855 	   23.0000 	   15.0000 	   33.5982 
    0.2365 	    0.7995 	   23.0000 	   15.0000 	   33.6262 
    0.2823 	    0.8260 	   23.0000 	   15.0000 	   33.6792 
    0.5417 	    0.8515 	   23.0000 	   15.0000 	   33.7302 
    0.3738 	    0.8800 	   23.0000 	   15.0000 	   33.7872 
    0.4044 	    0.9040 	   23.0000 	   15.0000 	   33.8352 
    0.4654 	    0.9310 	   23.0000 	   15.0000 	   33.8892 
    0.4196 	    0.9475 	   23.0000 	   15.0000 	   33.9222 
    0.5722 	    0.9765 	   23.0000 	   15.0000 	   33.9802 
    0.2213 	    1.0020 	   23.0000 	   15.0000 	   34.0312 
    0.4349 	    1.0290 	   23.0000 	   15.0000 	   34.0852 
    0.1297 	    1.0545 	   23.0000 	   15.0000 	   34.1362 
    0.4501 	    1.0785 	   23.0000 	   15.0000 	   34.1842 
    0.3586 	    1.1040 	   23.0000 	   15.0000 	   34.2352 
    0.4654 	    1.1330 	   23.0000 	   15.0000 	   34.2932 
    0.5112 	    1.1615 	   23.0000 	   15.0000 	   34.3502 
    0.1602 	    1.1875 	   23.0000 	   15.0000 	   34.4022 
    0.4654 	    1.2045 	   23.0000 	   15.0000 	   34.4362 
    0.7248 	    1.2330 	   23.0000 	   15.0000 	   34.4932 
    0.2823 	    1.2580 	   23.0000 	   15.0000 	   34.5432 
    0.4196 	    1.2820 	   23.0000 	   15.0000 	   34.5912 
    0.3891 	    1.3065 	   23.0000 	   15.0000 	   34.6402 
    0.4654 	    1.3330 	   23.0000 	   15.0000 	   34.6932 
    0.2670 	    1.3495 	   23.0000 	   15.0000 	   34.7262 
    0.5875 	    1.3780 	   23.0000 	   15.0000 	   34.7832 
    0.4501 	    1.4050 	   23.0000 	   15.0000 	   34.8372 
    0.5112 	    1.4295 	   23.0000 	   15.0000 	   34.8862 
    0.4196 	    1.4540 	   23.0000 	   15.0000 	   34.9352 
    0.2670 	    1.4795 	   23.0000 	   15.0000 	   34.9863 
    0.4044 	    1.5065 	   23.0000 	   15.0000 	   35.0403 
    0.6180 	    1.5310 	   23.0000 	   15.0000 	   35.0893 
    0.6027 	    1.5550 	   23.0000 	   15.0000 	   35.1373 
    0.5417 	    1.5825 	   23.0000 	   15.0000 	   35.1913 
    0.5570 	    1.5965 	   23.0000 	   15.0000 	   35.2203 
    0.7248 	    1.6115 	   23.0000 	   15.0000 	   35.2503 
    0.5264 	    1.6265 	   23.0000 	   15.0000 	   35.2803 
    0.5875 	    1.6555 	   23.0000 	   15.0000 	   35.3383 
    0.5875 	    1.6710 	   23.0000 	   15.0000 	   35.3693 
    0.5112 	    1.6870 	   23.0000 	   15.0000 	   35.4013 
    0.6638 	    1.7035 	   23.0000 	   15.0000 	   35.4343 
    0.4807 	    1.7195 	   23.0000 	   15.0000 	   35.4663 
    0.6180 	    1.7360 	   23.0000 	   15.0000 	   35.4993 
    0.6027 	    1.7520 	   23.0000 	   15.0000 	   35.5313 
    0.6027 	    1.7690 	   23.0000 	   15.0000 	   35.5653 
    0.5264 	    1.7840 	   23.0000 	   15.0000 	   35.5953 
    0.6332 	    1.8005 	   23.0000 	   15.0000 	   35.6283 
    0.5722 	    1.8170 	   23.0000 	   15.0000 	   35.6613 
    0.4501 	    1.8345 	   23.0000 	   15.0000 	   35.6963 
    0.6180 	    1.8520 	   23.0000 	   15.0000 	   35.7313 
    0.5722 	    1.8670 	   23.0000 	   15.0000 	   35.7613 
    0.5722 	    1.8845 	   23.0000 	   15.0000 	   35.7963 
    0.5417 	    1.9010 	   23.0000 	   15.0000 	   35.8293 
    0.6332 	    1.9180 	   23.0000 	   15.0000 	   35.8633 
    0.6027 	    1.9345 	   23.0000 	   15.0000 	   35.8963 
    0.5417 	    1.9515 	   23.0000 	   15.0000 	   35.9303 
    0.7706 	    1.9670 	   23.0000 	   15.0000 	   35.9613 
    0.8316 	    1.9835 	   23.0000 	   15.0000 	   35.9943 
    0.5417 	    2.0005 	   23.0000 	   15.0000 	   36.0283 
    0.6485 	    2.0305 	   23.0000 	   15.0000 	   36.0883 
    0.5722 	    2.0475 	   23.0000 	   15.0000 	   36.1223 
    0.6485 	    2.0635 	   23.0000 	   15.0000 	   36.1543 
    0.6180 	    2.0790 	   23.0000 	   15.0000 	   36.1853 
    0.6332 	    2.0950 	   23.0000 	   15.0000 	   36.2173 
    0.4654 	    2.1100 	   23.0000 	   15.0000 	   36.2473 
    0.8011 	    2.1260 	   23.0000 	   15.0000 	   36.2793 
    0.7553 	    2.1425 	   23.0000 	   15.0000 	   36.3123 
    0.4959 	    2.1600 	   23.0000 	   15.0000 	   36.3473 
    0.6332 	    2.1760 	   23.0000 	   15.0000 	   36.3793 
    0.6485 	    2.1920 	   23.0000 	   15.0000 	   36.4113 
    0.7553 	    2.2065 	   23.0000 	   15.0000 	   36.4403 
    0.6180 	    2.2230 	   23.0000 	   15.0000 	   36.4733 
    0.6943 	    2.2395 	   23.0000 	   15.0000 	   36.5063 
    0.5722 	    2.2565 	   23.0000 	   15.0000 	   36.5403 
    0.5264 	    2.2720 	   23.0000 	   15.0000 	   36.5713 
    0.6485 	    2.2880 	   23.0000 	   15.0000 	   36.6033 
    0.6180 	    2.3045 	   23.0000 	   15.0000 	   36.6363 
    0.6790 	    2.3205 	   23.0000 	   15.0000 	   36.6683 
    0.7553 	    2.3370 	   23.0000 	   15.0000 	   36.7013 
    0.6790 	    2.3540 	   23.0000 	   15.0000 	   36.7354 
    0.8621 	    2.3690 	   23.0000 	   15.0000 	   36.7654 
    0.6943 	    2.3865 	   23.0000 	   15.0000 	   36.8004 
    0.6485 	    2.4025 	   23.0000 	   15.0000 	   36.8324 
    0.7858 	    2.4185 	   23.0000 	   15.0000 	   36.8644 
    0.7553 	    2.4355 	   23.0000 	   15.0000 	   36.8984 
    0.7401 	    2.4500 	   23.0000 	   15.0000 	   36.9274 
    0.6790 	    2.4660 	   23.0000 	   15.0000 	   36.9594 
    0.8316 	    2.4830 	   23.0000 	   15.0000 	   36.9934 
    0.6180 	    2.4980 	   23.0000 	   15.0000 	   37.0234 
    0.5722 	    2.5150 	   23.0000 	   15.0000 	   37.0574 
    0.6027 	    2.5310 	   23.0000 	   15.0000 	   37.0894 
    0.8621 	    2.5475 	   23.0000 	   15.0000 	   37.1224 
    0.7095 	    2.5650 	   23.0000 	   15.0000 	   37.1574 
    0.4196 	    2.5800 	   23.0000 	   15.0000 	   37.1874 
    0.8316 	    2.5970 	   23.0000 	   15.0000 	   37.2214 
    0.7706 	    2.6125 	   23.0000 	   15.0000 	   37.2524 
    0.9384 	    2.6280 	   23.0000 	   15.0000 	   37.2834 
    0.7706 	    2.6450 	   23.0000 	   15.0000 	   37.3174 
    0.7095 	    2.6740 	   23.0000 	   15.0000 	   37.3754 
    0.9384 	    2.6890 	   23.0000 	   15.0000 	   37.4054 
    0.8621 	    2.7055 	   23.0000 	   15.0000 	   37.4384 
    0.6790 	    2.7200 	   23.0000 	   15.0000 	   37.4674 
    0.8469 	    2.7365 	   23.0000 	   15.0000 	   37.5004 
    0.8774 	    2.7515 	   23.0000 	   15.0000 	   37.5304 
    0.7401 	    2.7660 	   23.0000 	   15.0000 	   37.5594 
    0.7553 	    2.7815 	   23.0000 	   15.0000 	   37.5904 
    0.7858 	    2.7970 	   23.0000 	   15.0000 	   37.6214 
    0.8164 	    2.8155 	   23.0000 	   15.0000 	   37.6584 
    0.9995 	    2.8315 	   23.0000 	   15.0000 	   37.6904 
    0.8011 	    2.8485 	   23.0000 	   15.0000 	   37.7244 
    0.9995 	    2.8650 	   23.0000 	   15.0000 	   37.7574 
    0.9232 	    2.8800 	   23.0000 	   15.0000 	   37.7874 
    0.8621 	    2.8965 	   23.0000 	   15.0000 	   37.8204 
    1.0147 	    2.9105 	   23.0000 	   15.0000 	   37.8484 
    0.9079 	    2.9260 	   23.0000 	   15.0000 	   37.8794 
    0.8469 	    2.9555 	   23.0000 	   15.0000 	   37.9384 
    0.8164 	    2.9710 	   23.0000 	   15.0000 	   37.9694 
    0.9384 	    2.9865 	   23.0000 	   15.0000 	   38.0004 
    0.9079 	    3.0020 	   23.0000 	   15.0000 	   38.0314 
    0.8011 	    3.0155 	   23.0000 	   15.0000 	   38.0584 
    0.9232 	    3.0310 	   23.0000 	   15.0000 	   38.0894 
    0.8164 	    3.0445 	   23.0000 	   15.0000 	   38.1164 
    0.6638 	    3.0580 	   23.0000 	   15.0000 	   38.1434 
    0.8316 	    3.0705 	   23.0000 	   15.0000 	   38.1684 
    0.8927 	    3.0850 	   23.0000 	   15.0000 	   38.1974 
    0.8316 	    3.0980 	   23.0000 	   15.0000 	   38.2234 
    0.9079 	    3.1115 	   23.0000 	   15.0000 	   38.2504 
    0.8164 	    3.1265 	   23.0000 	   15.0000 	   38.2794 
    0.8011 	    3.1430 	   23.0000 	   15.0000 	   38.3134 
    0.8621 	    3.1590 	   23.0000 	   15.0000 	   38.3454 
    0.9384 	    3.1750 	   23.0000 	   15.0000 	   38.3774 
    0.8164 	    3.1915 	   23.0000 	   15.0000 	   38.4104 
    0.6332 	    3.2080 	   23.0000 	   15.0000 	   38.4434 
    0.8774 	    3.2235 	   23.0000 	   15.0000 	   38.4744 
    0.9079 	    3.2405 	   23.0000 	   15.0000 	   38.5085 
    0.8316 	    3.2565 	   23.0000 	   15.0000 	   38.5405 
    0.9232 	    3.2720 	   23.0000 	   15.0000 	   38.5715 
    0.9232 	    3.2885 	   23.0000 	   15.0000 	   38.6045 
    0.9995 	    3.3040 	   23.0000 	   15.0000 	   38.6355 
    1.0300 	    3.3190 	   23.0000 	   15.0000 	   38.6655 
    0.9079 	    3.3350 	   23.0000 	   15.0000 	   38.6975 
    1.0147 	    3.3505 	   23.0000 	   15.0000 	   38.7285 
    0.9384 	    3.3660 	   23.0000 	   15.0000 	   38.7595 
    0.9384 	    3.3825 	   23.0000 	   15.0000 	   38.7925 
    1.1521 	    3.3975 	   23.0000 	   15.0000 	   38.8225 
    0.9232 	    3.4120 	   23.0000 	   15.0000 	   38.8515 
    1.0300 	    3.4290 	   23.0000 	   15.0000 	   38.8855 
    0.9537 	    3.4460 	   23.0000 	   15.0000 	   38.9195 
    0.9232 	    3.4615 	   23.0000 	   15.0000 	   38.9505 
    0.9689 	    3.4765 	   23.0000 	   15.0000 	   38.9805 
    1.0605 	    3.4935 	   23.0000 	   15.0000 	   39.0145 
    0.9537 	    3.5090 	   23.0000 	   15.0000 	   39.0455 
    1.1673 	    3.5250 	   23.0000 	   15.0000 	   39.0775 
    0.8774 	    3.5415 	   23.0000 	   15.0000 	   39.1105 
    1.0452 	    3.5570 	   23.0000 	   15.0000 	   39.1415 
    0.7858 	    3.5725 	   23.0000 	   15.0000 	   39.1725 
    1.0758 	    3.5890 	   23.0000 	   15.0000 	   39.2055 
    0.9995 	    3.6035 	   23.0000 	   15.0000 	   39.2345 
    0.9537 	    3.6185 	   23.0000 	   15.0000 	   39.2645 
    1.0605 	    3.6355 	   23.0000 	   15.0000 	   39.2985 
    1.1368 	    3.6510 	   23.0000 	   15.0000 	   39.3295 
    1.0300 	    3.6670 	   23.0000 	   15.0000 	   39.3615 
    0.9995 	    3.6840 	   23.0000 	   15.0000 	   39.3955 
    1.1673 	    3.6985 	   23.0000 	   15.0000 	   39.4245 
    0.9995 	    3.7140 	   23.0000 	   15.0000 	   39.4555 
    0.9384 	    3.7285 	   23.0000 	   15.0000 	   39.4845 
    1.0452 	    3.7450 	   23.0000 	   15.0000 	   39.5175 
    0.9384 	    3.7605 	   23.0000 	   15.0000 	   39.5485 
    0.9842 	    3.7755 	   23.0000 	   15.0000 	   39.5785 
    0.9689 	    3.7945 	   23.0000 	   15.0000 	   39.6165 
    1.0300 	    3.8155 	   23.0000 	   15.0000 	   39.6585 
    1.0758 	    3.8300 	   23.0000 	   15.0000 	   39.6875 
    0.9995 	    3.8470 	   23.0000 	   15.0000 	   39.7215 
    1.0300 	    3.8615 	   23.0000 	   15.0000 	   39.7505 
    0.9232 	    3.8775 	   23.0000 	   15.0000 	   39.7825 
    1.1368 	    3.8940 	   23.0000 	   15.0000 	   39.8155 
    1.1673 	    3.9095 	   23.0000 	   15.0000 	   39.8465 
    1.0452 	    3.9250 	   23.0000 	   15.0000 	   39.8775 
    1.1368 	    3.9420 	   23.0000 	   15.0000 	   39.9115 
    1.1063 	    3.9570 	   23.0000 	   15.0000 	   39.9415 
    1.2894 	    3.9720 	   23.0000 	   15.0000 	   39.9715 
    0.7858 	    3.9875 	   23.0000 	   15.0000 	   40.0025 
    1.2284 	    4.0040 	   23.0000 	   15.0000 	   40.0355 
    1.1826 	    4.0195 	   23.0000 	   15.0000 	   40.0665 
    1.1063 	    4.0365 	   23.0000 	   15.0000 	   40.1005 
    1.0910 	    4.0520 	   23.0000 	   15.0000 	   40.1315 
    1.0147 	    4.0680 	   23.0000 	   15.0000 	   40.1635 
    0.9995 	    4.0845 	   23.0000 	   15.0000 	   40.1965 
    1.1368 	    4.1005 	   23.0000 	   15.0000 	   40.2285 
    0.9995 	    4.1170 	   23.0000 	   15.0000 	   40.2616 
    0.7248 	    4.1335 	   23.0000 	   15.0000 	   40.2946 
    1.1673 	    4.1485 	   23.0000 	   15.0000 	   40.3246 
    1.1215 	    4.1625 	   23.0000 	   15.0000 	   40.3526 
    1.0605 	    4.1770 	   23.0000 	   15.0000 	   40.3816 
    1.1063 	    4.1930 	   23.0000 	   15.0000 	   40.4136 
    1.1063 	    4.2075 	   23.0000 	   15.0000 	   40.4426 
    0.9995 	    4.2240 	   23.0000 	   15.0000 	   40.4756 
    1.1673 	    4.2410 	   23.0000 	   15.0000 	   40.5096 
    0.9995 	    4.2570 	   23.0000 	   15.0000 	   40.5416 
    1.2131 	    4.2720 	   23.0000 	   15.0000 	   40.5716 
    1.0300 	    4.2870 	   23.0000 	   15.0000 	   40.6016 
    1.1521 	    4.3020 	   23.0000 	   15.0000 	   40.6316 
    1.1368 	    4.3195 	   23.0000 	   15.0000 	   40.6666 
    1.1521 	    4.3365 	   23.0000 	   15.0000 	   40.7006 
    1.1215 	    4.3520 	   23.0000 	   15.0000 	   40.7316 
    0.9689 	    4.3675 	   23.0000 	   15.0000 	   40.7626 
    1.2894 	    4.3825 	   23.0000 	   15.0000 	   40.7926 
    1.1826 	    4.3970 	   23.0000 	   15.0000 	   40.8216 
    1.2284 	    4.4120 	   23.0000 	   15.0000 	   40.8516 
    1.1673 	    4.4275 	   23.0000 	   15.0000 	   40.8826 
    0.9995 	    4.4445 	   23.0000 	   15.0000 	   40.9166 
    1.2284 	    4.4595 	   23.0000 	   15.0000 	   40.9466 
    1.0605 	    4.4750 	   23.0000 	   15.0000 	   40.9776 
    0.8621 	    4.4910 	   23.0000 	   15.0000 	   41.0096 
    1.1368 	    4.5080 	   23.0000 	   15.0000 	   41.0436 
    1.2131 	    4.5235 	   23.0000 	   15.0000 	   41.0746 
    1.2589 	    4.5400 	   23.0000 	   15.0000 	   41.1076 
    1.2436 	    4.5560 	   23.0000 	   15.0000 	   41.1396 
    0.9995 	    4.5725 	   23.0000 	   15.0000 	   41.1726 
    1.1368 	    4.5875 	   23.0000 	   15.0000 	   41.2026 
    1.1368 	    4.6025 	   23.0000 	   15.0000 	   41.2326 
    1.2589 	    4.6190 	   23.0000 	   15.0000 	   41.2656 
    1.1826 	    4.6360 	   23.0000 	   15.0000 	   41.2996 
    1.2284 	    4.6520 	   23.0000 	   15.0000 	   41.3316 
    1.2131 	    4.6680 	   23.0000 	   15.0000 	   41.3636 
    1.1978 	    4.6840 	   23.0000 	   15.0000 	   41.3956 
    1.3046 	    4.7000 	   23.0000 	   15.0000 	   41.4276 
    1.2436 	    4.7150 	   23.0000 	   15.0000 	   41.4576 
    1.2894 	    4.7450 	   23.0000 	   15.0000 	   41.5176 
    1.2741 	    4.7605 	   23.0000 	   15.0000 	   41.5486 
    1.1368 	    4.7765 	   23.0000 	   15.0000 	   41.5806 
    1.3352 	    4.7910 	   23.0000 	   15.0000 	   41.6096 
    1.1978 	    4.8155 	   23.0000 	   15.0000 	   41.6586 
    1.1368 	    4.8290 	   23.0000 	   15.0000 	   41.6856 
    1.2436 	    4.8470 	   23.0000 	   15.0000 	   41.7216 
    1.1978 	    4.8625 	   23.0000 	   15.0000 	   41.7526 
    1.1826 	    4.8770 	   23.0000 	   15.0000 	   41.7816 
    1.1673 	    4.8930 	   23.0000 	   15.0000 	   41.8136 
    1.2131 	    4.9105 	   23.0000 	   15.0000 	   41.8486 
    1.2741 	    4.9255 	   23.0000 	   15.0000 	   41.8786 
    1.2131 	    4.9425 	   23.0000 	   15.0000 	   41.9126 
    1.3046 	    4.9570 	   23.0000 	   15.0000 	   41.9417 
    1.2894 	    4.9730 	   23.0000 	   15.0000 	   41.9737 
    1.3199 	    4.9880 	   23.0000 	   15.0000 	   42.0037 
    1.2436 	    5.0035 	   23.0000 	   15.0000 	   42.0347 
    1.2131 	    5.0185 	   23.0000 	   15.0000 	   42.0647 
    0.9079 	    5.0360 	   23.0000 	   15.0000 	   42.0997 
    1.2589 	    5.0510 	   23.0000 	   15.0000 	   42.1297 
    1.2131 	    5.0655 	   23.0000 	   15.0000 	   42.1587 
    1.3962 	    5.0810 	   23.0000 	   15.0000 	   42.1897 
    1.1826 	    5.0965 	   23.0000 	   15.0000 	   42.2207 
    1.2741 	    5.1130 	   23.0000 	   15.0000 	   42.2537 
    1.0452 	    5.1285 	   23.0000 	   15.0000 	   42.2847 
    1.4725 	    5.1450 	   23.0000 	   15.0000 	   42.3177 
    1.2131 	    5.1605 	   23.0000 	   15.0000 	   42.3487 
    1.3199 	    5.1780 	   23.0000 	   15.0000 	   42.3837 
    1.3199 	    5.1945 	   23.0000 	   15.0000 	   42.4167 
    1.2436 	    5.2095 	   23.0000 	   15.0000 	   42.4467 
    1.3504 	    5.2250 	   23.0000 	   15.0000 	   42.4777 
    1.2131 	    5.2410 	   23.0000 	   15.0000 	   42.5097 
    1.2589 	    5.2565 	   23.0000 	   15.0000 	   42.5407 
    1.2894 	    5.2715 	   23.0000 	   15.0000 	   42.5707 
    1.2741 	    5.2855 	   23.0000 	   15.0000 	   42.5987 
    1.0300 	    5.3035 	   23.0000 	   15.0000 	   42.6347 
    1.1978 	    5.3195 	   23.0000 	   15.0000 	   42.6667 
    1.3657 	    5.3375 	   23.0000 	   15.0000 	   42.7027 
    1.2589 	    5.3525 	   23.0000 	   15.0000 	   42.7327 
    1.1978 	    5.3685 	   23.0000 	   15.0000 	   42.7647 
    1.2741 	    5.3850 	   23.0000 	   15.0000 	   42.7977 
    1.2741 	    5.4010 	   23.0000 	   15.0000 	   42.8297 
    1.4115 	    5.4170 	   23.0000 	   15.0000 	   42.8617 
    1.2436 	    5.4340 	   23.0000 	   15.0000 	   42.8957 
    1.3046 	    5.4510 	   23.0000 	   15.0000 	   42.9297 
    1.3199 	    5.4665 	   23.0000 	   15.0000 	   42.9607 
    1.4267 	    5.4830 	   23.0000 	   15.0000 	   42.9937 
    1.3657 	    5.4985 	   23.0000 	   15.0000 	   43.0247 
    1.3504 	    5.5135 	   23.0000 	   15.0000 	   43.0547 
    1.3352 	    5.5290 	   23.0000 	   15.0000 	   43.0857 
    1.2894 	    5.5460 	   23.0000 	   15.0000 	   43.1197 
    1.3504 	    5.5620 	   23.0000 	   15.0000 	   43.1517 
    1.2589 	    5.5770 	   23.0000 	   15.0000 	   43.1817 
    1.3046 	    5.5930 	   23.0000 	   15.0000 	   43.2137 
    1.2436 	    5.6090 	   23.0000 	   15.0000 	   43.2457 
    1.3046 	    5.6255 	   23.0000 	   15.0000 	   43.2787 
    1.3809 	    5.6425 	   23.0000 	   15.0000 	   43.3127 
    1.3352 	    5.6585 	   23.0000 	   15.0000 	   43.3447 
    1.2589 	    5.6750 	   23.0000 	   15.0000 	   43.3777 
    1.3504 	    5.6910 	   23.0000 	   15.0000 	   43.4097 
    1.2436 	    5.7070 	   23.0000 	   15.0000 	   43.4417 
    1.5183 	    5.7225 	   23.0000 	   15.0000 	   43.4727 
    1.2741 	    5.7400 	   23.0000 	   15.0000 	   43.5077 
    1.2894 	    5.7570 	   23.0000 	   15.0000 	   43.5417 
    1.2894 	    5.7720 	   23.0000 	   15.0000 	   43.5717 
    1.1978 	    5.7865 	   23.0000 	   15.0000 	   43.6007 
    1.3504 	    5.8040 	   23.0000 	   15.0000 	   43.6357 
    1.2894 	    5.8200 	   23.0000 	   15.0000 	   43.6677 
    1.3352 	    5.8380 	   23.0000 	   15.0000 	   43.7038 
    1.6098 	    5.8530 	   23.0000 	   15.0000 	   43.7337 
    1.2436 	    5.8690 	   23.0000 	   15.0000 	   43.7658 
    1.3657 	    5.8855 	   23.0000 	   15.0000 	   43.7988 
    1.1826 	    5.9005 	   23.0000 	   15.0000 	   43.8288 
    1.3809 	    5.9165 	   23.0000 	   15.0000 	   43.8608 
    1.3046 	    5.9345 	   23.0000 	   15.0000 	   43.8968 
    1.5335 	    5.9505 	   23.0000 	   15.0000 	   43.9288 
    1.3657 	    5.9660 	   23.0000 	   15.0000 	   43.9598 
    1.4878 	    5.9815 	   23.0000 	   15.0000 	   43.9908 
    1.5793 	    5.9970 	   23.0000 	   15.0000 	   44.0218 
    1.4725 	    6.0125 	   23.0000 	   15.0000 	   44.0528 
    1.2589 	    6.0270 	   23.0000 	   15.0000 	   44.0818 
    1.5030 	    6.0445 	   23.0000 	   15.0000 	   44.1168 
    1.4878 	    6.0605 	   23.0000 	   15.0000 	   44.1488 
    1.4420 	    6.0765 	   23.0000 	   15.0000 	   44.1798 
    1.5335 	    6.0910 	   23.0000 	   15.0000 	   44.2098 
    1.4878 	    6.1070 	   23.0000 	   15.0000 	   44.2418 
    1.5183 	    6.1230 	   23.0000 	   15.0000 	   44.2738 
    1.3504 	    6.1410 	   23.0000 	   15.0000 	   44.3098 
    1.2894 	    6.1575 	   23.0000 	   15.0000 	   44.3428 
    1.2894 	    6.1735 	   23.0000 	   15.0000 	   44.3748 
    1.5030 	    6.1890 	   23.0000 	   15.0000 	   44.4058 
    1.3199 	    6.2050 	   23.0000 	   15.0000 	   44.4378 
    1.3809 	    6.2205 	   23.0000 	   15.0000 	   44.4688 
    1.3352 	    6.2375 	   23.0000 	   15.0000 	   44.5028 
    1.4267 	    6.2535 	   23.0000 	   15.0000 	   44.5348 
    1.4572 	    6.2690 	   23.0000 	   15.0000 	   44.5658 
    1.4115 	    6.2835 	   23.0000 	   15.0000 	   44.5948 
    1.3504 	    6.2995 	   23.0000 	   15.0000 	   44.6268 
    1.3046 	    6.3140 	   23.0000 	   15.0000 	   44.6558 
    1.3962 	    6.3290 	   23.0000 	   15.0000 	   44.6858 
    1.4572 	    6.3465 	   23.0000 	   15.0000 	   44.7198 
    1.2894 	    6.3620 	   23.0000 	   15.0000 	   44.7508 
    1.3046 	    6.3780 	   23.0000 	   15.0000 	   44.7828 
    1.3962 	    6.3925 	   23.0000 	   15.0000 	   44.8118 
    1.3809 	    6.4095 	   23.0000 	   15.0000 	   44.8458 
    1.4267 	    6.4250 	   23.0000 	   15.0000 	   44.8768 
    1.4725 	    6.4425 	   23.0000 	   15.0000 	   44.9118 
    1.2741 	    6.4585 	   23.0000 	   15.0000 	   44.9438 
    1.3809 	    6.4740 	   23.0000 	   15.0000 	   44.9748 
    1.4115 	    6.4900 	   23.0000 	   15.0000 	   45.0068 
    1.3046 	    6.5055 	   23.0000 	   15.0000 	   45.0378 
    1.4115 	    6.5215 	   23.0000 	   15.0000 	   45.0698 
    1.5640 	    6.5375 	   23.0000 	   15.0000 	   45.1018 
    1.4572 	    6.5545 	   23.0000 	   15.0000 	   45.1358 
    1.4878 	    6.5705 	   23.0000 	   15.0000 	   45.1678 
    1.0758 	    6.5865 	   23.0000 	   15.0000 	   45.1998 
    1.4115 	    6.6020 	   23.0000 	   15.0000 	   45.2308 
    1.1521 	    6.6180 	   23.0000 	   15.0000 	   45.2628 
    1.3504 	    6.6350 	   23.0000 	   15.0000 	   45.2968 
    1.4572 	    6.6505 	   23.0000 	   15.0000 	   45.3278 
    1.4420 	    6.6665 	   23.0000 	   15.0000 	   45.3598 
    1.4878 	    6.6820 	   23.0000 	   15.0000 	   45.3908 
    1.4878 	    6.6980 	   23.0000 	   15.0000 	   45.4228 
    1.5183 	    6.7135 	   23.0000 	   15.0000 	   45.4538 
    1.5640 	    6.7300 	   23.0000 	   15.0000 	   45.4869 
    1.4115 	    6.7460 	   23.0000 	   15.0000 	   45.5189 
    1.4420 	    6.7620 	   23.0000 	   15.0000 	   45.5509 
    1.4572 	    6.7770 	   23.0000 	   15.0000 	   45.5809 
    1.5488 	    6.7935 	   23.0000 	   15.0000 	   45.6129 
    1.4115 	    6.8160 	   23.0000 	   15.0000 	   45.6589 
    1.4725 	    6.8315 	   23.0000 	   15.0000 	   45.6899 
    1.4725 	    6.8485 	   23.0000 	   15.0000 	   45.7239 
    1.5030 	    6.8635 	   23.0000 	   15.0000 	   45.7539 
    1.3962 	    6.8790 	   23.0000 	   15.0000 	   45.7849 
    1.4115 	    6.8950 	   23.0000 	   15.0000 	   45.8169 
    1.4267 	    6.9110 	   23.0000 	   15.0000 	   45.8489 
    1.3962 	    6.9270 	   23.0000 	   15.0000 	   45.8809 
    1.5183 	    6.9435 	   23.0000 	   15.0000 	   45.9139 
    1.5793 	    6.9595 	   23.0000 	   15.0000 	   45.9459 
    1.4878 	    6.9765 	   23.0000 	   15.0000 	   45.9799 
    1.5793 	    6.9930 	   23.0000 	   15.0000 	   46.0129 
    1.6556 	    7.0090 	   23.0000 	   15.0000 	   46.0449 
    1.5946 	    7.0260 	   23.0000 	   15.0000 	   46.0789 
    1.5335 	    7.0435 	   23.0000 	   15.0000 	   46.1139 
    1.5946 	    7.0600 	   23.0000 	   15.0000 	   46.1469 
    1.2131 	    7.0760 	   23.0000 	   15.0000 	   46.1789 
    1.4725 	    7.0920 	   23.0000 	   15.0000 	   46.2109 
    1.5640 	    7.1090 	   23.0000 	   15.0000 	   46.2449 
    1.5335 	    7.1245 	   23.0000 	   15.0000 	   46.2759 
    1.1521 	    7.1405 	   23.0000 	   15.0000 	   46.3079 
    1.5488 	    7.1565 	   23.0000 	   15.0000 	   46.3389 
    1.5030 	    7.1720 	   23.0000 	   15.0000 	   46.3709 
    1.4878 	    7.1875 	   23.0000 	   15.0000 	   46.4019 
    1.5640 	    7.2030 	   23.0000 	   15.0000 	   46.4329 
    1.7777 	    7.2190 	   23.0000 	   15.0000 	   46.4649 
    1.4115 	    7.2360 	   23.0000 	   15.0000 	   46.4989 
    1.4267 	    7.2525 	   23.0000 	   15.0000 	   46.5319 
    1.4115 	    7.2685 	   23.0000 	   15.0000 	   46.5639 
    1.5030 	    7.2840 	   23.0000 	   15.0000 	   46.5949 
    1.0910 	    7.2995 	   23.0000 	   15.0000 	   46.6259 
    1.4878 	    7.3160 	   23.0000 	   15.0000 	   46.6589 
    1.4572 	    7.3310 	   23.0000 	   15.0000 	   46.6889 
    1.5793 	    7.3465 	   23.0000 	   15.0000 	   46.7199 
    1.6403 	    7.3620 	   23.0000 	   15.0000 	   46.7509 
    1.4725 	    7.3785 	   23.0000 	   15.0000 	   46.7839 
    1.5946 	    7.3945 	   23.0000 	   15.0000 	   46.8159 
    1.4878 	    7.4100 	   23.0000 	   15.0000 	   46.8469 
    1.6403 	    7.4265 	   23.0000 	   15.0000 	   46.8799 
    1.5335 	    7.4440 	   23.0000 	   15.0000 	   46.9149 
    1.5793 	    7.4605 	   23.0000 	   15.0000 	   46.9479 
    1.5183 	    7.4770 	   23.0000 	   15.0000 	   46.9809 
    1.6403 	    7.4935 	   23.0000 	   15.0000 	   47.0139 
    1.5183 	    7.5090 	   23.0000 	   15.0000 	   47.0449 
    1.5946 	    7.5255 	   23.0000 	   15.0000 	   47.0779 
    1.7319 	    7.5420 	   23.0000 	   15.0000 	   47.1109 
    1.5946 	    7.5575 	   23.0000 	   15.0000 	   47.1419 
    1.6403 	    7.5740 	   23.0000 	   15.0000 	   47.1749 
    1.5335 	    7.5900 	   23.0000 	   15.0000 	   47.2070 
    1.5030 	    7.6060 	   23.0000 	   15.0000 	   47.2390 
    1.2741 	    7.6215 	   23.0000 	   15.0000 	   47.2700 
    1.4725 	    7.6385 	   23.0000 	   15.0000 	   47.3040 
    1.6251 	    7.6540 	   23.0000 	   15.0000 	   47.3350 
    1.3962 	    7.6705 	   23.0000 	   15.0000 	   47.3680 
    1.5793 	    7.6860 	   23.0000 	   15.0000 	   47.3990 
    1.5793 	    7.7015 	   23.0000 	   15.0000 	   47.4300 
    1.5793 	    7.7175 	   23.0000 	   15.0000 	   47.4620 
    1.4725 	    7.7330 	   23.0000 	   15.0000 	   47.4930 
    1.7014 	    7.7490 	   23.0000 	   15.0000 	   47.5250 
    1.7014 	    7.7655 	   23.0000 	   15.0000 	   47.5580 
    1.4420 	    7.7810 	   23.0000 	   15.0000 	   47.5890 
    1.6403 	    7.7970 	   23.0000 	   15.0000 	   47.6210 
    1.5793 	    7.8160 	   23.0000 	   15.0000 	   47.6590 
    1.7166 	    7.8320 	   23.0000 	   15.0000 	   47.6910 
    1.5946 	    7.8490 	   23.0000 	   15.0000 	   47.7250 
    1.5793 	    7.8650 	   23.0000 	   15.0000 	   47.7570 
    1.5335 	    7.8810 	   23.0000 	   15.0000 	   47.7890 
    1.6098 	    7.8970 	   23.0000 	   15.0000 	   47.8210 
    1.6403 	    7.9130 	   23.0000 	   15.0000 	   47.8530 
    1.5946 	    7.9300 	   23.0000 	   15.0000 	   47.8870 
    1.6098 	    7.9460 	   23.0000 	   15.0000 	   47.9190 
    1.5183 	    7.9630 	   23.0000 	   15.0000 	   47.9530 
    1.4725 	    7.9790 	   23.0000 	   15.0000 	   47.9850 
    1.6403 	    7.9955 	   23.0000 	   15.0000 	   48.0180 
    1.5946 	    8.0105 	   23.0000 	   15.0000 	   48.0480 
    1.7319 	    8.0270 	   23.0000 	   15.0000 	   48.0810 
    1.7166 	    8.0455 	   23.0000 	   15.0000 	   48.1180 
    1.5946 	    8.0615 	   23.0000 	   15.0000 	   48.1500 
    1.5946 	    8.0775 	   23.0000 	   15.0000 	   48.1820 
    1.3352 	    8.0940 	   23.0000 	   15.0000 	   48.2150 
    1.5183 	    8.1100 	   23.0000 	   15.0000 	   48.2470 
    1.6709 	    8.1270 	   23.0000 	   15.0000 	   48.2810 
    1.5793 	    8.1440 	   23.0000 	   15.0000 	   48.3150 
    1.5793 	    8.1605 	   23.0000 	   15.0000 	   48.3480 
    1.7929 	    8.1770 	   23.0000 	   15.0000 	   48.3810 
    1.5640 	    8.1930 	   23.0000 	   15.0000 	   48.4130 
    1.6251 	    8.2100 	   23.0000 	   15.0000 	   48.4470 
    1.6403 	    8.2265 	   23.0000 	   15.0000 	   48.4800 
    1.4878 	    8.2445 	   23.0000 	   15.0000 	   48.5160 
    1.6251 	    8.2610 	   23.0000 	   15.0000 	   48.5490 
    1.6098 	    8.2775 	   23.0000 	   15.0000 	   48.5820 
    1.6098 	    8.2935 	   23.0000 	   15.0000 	   48.6140 
    1.6709 	    8.3100 	   23.0000 	   15.0000 	   48.6470 
    1.3657 	    8.3260 	   23.0000 	   15.0000 	   48.6790 
    1.5640 	    8.3425 	   23.0000 	   15.0000 	   48.7120 
    1.6098 	    8.3585 	   23.0000 	   15.0000 	   48.7440 
    1.7624 	    8.3740 	   23.0000 	   15.0000 	   48.7750 
    1.5640 	    8.3900 	   23.0000 	   15.0000 	   48.8070 
    1.7319 	    8.4050 	   23.0000 	   15.0000 	   48.8370 
    1.7166 	    8.4220 	   23.0000 	   15.0000 	   48.8700 
    1.6709 	    8.4400 	   23.0000 	   15.0000 	   48.9070 
    1.5946 	    8.4565 	   23.0000 	   15.0000 	   48.9400 
    1.5183 	    8.4740 	   23.0000 	   15.0000 	   48.9751 
    1.5946 	    8.4895 	   23.0000 	   15.0000 	   49.0061 
    1.6709 	    8.5050 	   23.0000 	   15.0000 	   49.0371 
    1.7166 	    8.5220 	   23.0000 	   15.0000 	   49.0711 
    1.6709 	    8.5385 	   23.0000 	   15.0000 	   49.1041 
    1.6709 	    8.5555 	   23.0000 	   15.0000 	   49.1381 
    1.7777 	    8.5715 	   23.0000 	   15.0000 	   49.1701 
    1.6709 	    8.5875 	   23.0000 	   15.0000 	   49.2021 
    1.6861 	    8.6040 	   23.0000 	   15.0000 	   49.2351 
    1.6556 	    8.6205 	   23.0000 	   15.0000 	   49.2681 
    1.6098 	    8.6380 	   23.0000 	   15.0000 	   49.3031 
    1.3504 	    8.6540 	   23.0000 	   15.0000 	   49.3351 
    1.6403 	    8.6705 	   23.0000 	   15.0000 	   49.3681 
    1.6709 	    8.6865 	   23.0000 	   15.0000 	   49.4001 
    1.7166 	    8.7035 	   23.0000 	   15.0000 	   49.4341 
    1.5640 	    8.7195 	   23.0000 	   15.0000 	   49.4661 
    1.7166 	    8.7370 	   23.0000 	   15.0000 	   49.5011 
    1.5793 	    8.7525 	   23.0000 	   15.0000 	   49.5321 
    1.5946 	    8.7680 	   23.0000 	   15.0000 	   49.5631 
    1.5946 	    8.7835 	   23.0000 	   15.0000 	   49.5941 
    1.4572 	    8.7985 	   23.0000 	   15.0000 	   49.6241 
    1.6861 	    8.8130 	   23.0000 	   15.0000 	   49.6531 
    1.8997 	    8.8285 	   23.0000 	   15.0000 	   49.6841 
    1.6709 	    8.8460 	   23.0000 	   15.0000 	   49.7191 
    1.8082 	    8.8625 	   23.0000 	   15.0000 	   49.7521 
    1.6556 	    8.8780 	   23.0000 	   15.0000 	   49.7831 
    1.7166 	    8.8945 	   23.0000 	   15.0000 	   49.8161 
    1.8387 	    8.9100 	   23.0000 	   15.0000 	   49.8471 
    1.8540 	    8.9265 	   23.0000 	   15.0000 	   49.8801 
    1.7777 	    8.9415 	   23.0000 	   15.0000 	   49.9101 
    1.6861 	    8.9580 	   23.0000 	   15.0000 	   49.9421 
    1.6403 	    8.9740 	   23.0000 	   15.0000 	   49.9751 
    1.6098 	    8.9905 	   23.0000 	   15.0000 	   50.0081 
    1.8845 	    9.0065 	   23.0000 	   15.0000 	   50.0401 
    1.8235 	    9.0230 	   23.0000 	   15.0000 	   50.0731 
    1.9150 	    9.0410 	   23.0000 	   15.0000 	   50.1091 
    1.8387 	    9.0580 	   23.0000 	   15.0000 	   50.1431 
    1.7624 	    9.0745 	   23.0000 	   15.0000 	   50.1761 
    1.6861 	    9.0900 	   23.0000 	   15.0000 	   50.2071 
    1.8082 	    9.1060 	   23.0000 	   15.0000 	   50.2391 
    1.6556 	    9.1230 	   23.0000 	   15.0000 	   50.2731 
    1.7624 	    9.1395 	   23.0000 	   15.0000 	   50.3061 
    1.7166 	    9.1560 	   23.0000 	   15.0000 	   50.3391 
    1.6861 	    9.1715 	   23.0000 	   15.0000 	   50.3701 
    1.7472 	    9.1870 	   23.0000 	   15.0000 	   50.4011 
    1.6861 	    9.2035 	   23.0000 	   15.0000 	   50.4341 
    1.7319 	    9.2185 	   23.0000 	   15.0000 	   50.4641 
    1.6861 	    9.2360 	   23.0000 	   15.0000 	   50.4991 
    1.6861 	    9.2525 	   23.0000 	   15.0000 	   50.5321 
    1.8235 	    9.2695 	   23.0000 	   15.0000 	   50.5661 
    1.5183 	    9.2850 	   23.0000 	   15.0000 	   50.5971 
    1.6861 	    9.3010 	   23.0000 	   15.0000 	   50.6291 
    1.5488 	    9.3180 	   23.0000 	   15.0000 	   50.6631 
    1.6861 	    9.3340 	   23.0000 	   15.0000 	   50.6951 
    1.7166 	    9.3505 	   23.0000 	   15.0000 	   50.7281 
    1.8387 	    9.3665 	   23.0000 	   15.0000 	   50.7602 
    1.6556 	    9.3825 	   23.0000 	   15.0000 	   50.7922 
    1.6861 	    9.3990 	   23.0000 	   15.0000 	   50.8252 
    1.7777 	    9.4160 	   23.0000 	   15.0000 	   50.8592 
    1.7472 	    9.4315 	   23.0000 	   15.0000 	   50.8902 
    1.6861 	    9.4505 	   23.0000 	   15.0000 	   50.9282 
    1.7166 	    9.4660 	   23.0000 	   15.0000 	   50.9592 
    1.7014 	    9.4820 	   23.0000 	   15.0000 	   50.9912 
    1.8692 	    9.4985 	   23.0000 	   15.0000 	   51.0242 
    1.8387 	    9.5150 	   23.0000 	   15.0000 	   51.0572 
    1.8235 	    9.5305 	   23.0000 	   15.0000 	   51.0882 
    1.7777 	    9.5475 	   23.0000 	   15.0000 	   51.1222 
    1.7319 	    9.5635 	   23.0000 	   15.0000 	   51.1542 
    1.7472 	    9.5805 	   23.0000 	   15.0000 	   51.1882 
    1.6403 	    9.5975 	   23.0000 	   15.0000 	   51.2222 
    1.7472 	    9.6140 	   23.0000 	   15.0000 	   51.2552 
    1.8082 	    9.6300 	   23.0000 	   15.0000 	   51.2872 
    1.7472 	    9.6480 	   23.0000 	   15.0000 	   51.3232 
    1.6709 	    9.6650 	   23.0000 	   15.0000 	   51.3572 
    1.7166 	    9.6785 	   23.0000 	   15.0000 	   51.3842 
    1.7624 	    9.6930 	   23.0000 	   15.0000 	   51.4132 
    1.8235 	    9.7080 	   23.0000 	   15.0000 	   51.4432 
    1.6098 	    9.7220 	   23.0000 	   15.0000 	   51.4702 
    1.8387 	    9.7355 	   23.0000 	   15.0000 	   51.4982 
    1.7624 	    9.7500 	   23.0000 	   15.0000 	   51.5272 
    1.8540 	    9.7640 	   23.0000 	   15.0000 	   51.5552 
    1.9303 	    9.7790 	   23.0000 	   15.0000 	   51.5852 
    1.7624 	    9.7940 	   23.0000 	   15.0000 	   51.6152 
    1.8235 	    9.8100 	   23.0000 	   15.0000 	   51.6472 
    1.5488 	    9.8265 	   23.0000 	   15.0000 	   51.6802 
    1.7166 	    9.8450 	   23.0000 	   15.0000 	   51.7172 
    1.8540 	    9.8625 	   23.0000 	   15.0000 	   51.7522 
    1.7166 	    9.8800 	   23.0000 	   15.0000 	   51.7872 
    1.7472 	    9.8960 	   23.0000 	   15.0000 	   51.8192 
    1.7929 	    9.9120 	   23.0000 	   15.0000 	   51.8512 
    1.8845 	    9.9280 	   23.0000 	   15.0000 	   51.8832 
    1.7929 	    9.9450 	   23.0000 	   15.0000 	   51.9162 
    1.8845 	    9.9620 	   23.0000 	   15.0000 	   51.9512 
    1.7319 	    9.9785 	   23.0000 	   15.0000 	   51.9842 
    1.8692 	    9.9950 	   23.0000 	   15.0000 	   52.0172 
    1.8997 	   10.0115 	   23.0000 	   15.0000 	   52.0502 
    1.7319 	   10.0270 	   23.0000 	   15.0000 	   52.0812 
    1.7319 	   10.0445 	   23.0000 	   15.0000 	   52.1162 
    1.7929 	   10.0605 	   23.0000 	   15.0000 	   52.1482 
    1.9760 	   10.0765 	   23.0000 	   15.0000 	   52.1802 
    1.5640 	   10.0930 	   23.0000 	   15.0000 	   52.2132 
    1.9455 	   10.1090 	   23.0000 	   15.0000 	   52.2452 
    1.8997 	   10.1250 	   23.0000 	   15.0000 	   52.2772 
    1.7166 	   10.1415 	   23.0000 	   15.0000 	   52.3102 
    1.8082 	   10.1575 	   23.0000 	   15.0000 	   52.3422 
    1.8082 	   10.1720 	   23.0000 	   15.0000 	   52.3712 
    1.7929 	   10.1865 	   23.0000 	   15.0000 	   52.4002 
    2.0981 	   10.2015 	   23.0000 	   15.0000 	   52.4302 
    1.8082 	   10.2165 	   23.0000 	   15.0000 	   52.4603 
    1.9455 	   10.2330 	   23.0000 	   15.0000 	   52.4933 
    1.7777 	   10.2485 	   23.0000 	   15.0000 	   52.5243 
    1.7014 	   10.2630 	   23.0000 	   15.0000 	   52.5533 
    1.8997 	   10.2765 	   23.0000 	   15.0000 	   52.5803 
    1.8692 	   10.2935 	   23.0000 	   15.0000 	   52.6143 
    1.7319 	   10.3100 	   23.0000 	   15.0000 	   52.6473 
    1.8540 	   10.3270 	   23.0000 	   15.0000 	   52.6813 
    1.8235 	   10.3435 	   23.0000 	   15.0000 	   52.7143 
    1.8082 	   10.3595 	   23.0000 	   15.0000 	   52.7463 
    1.9608 	   10.3755 	   23.0000 	   15.0000 	   52.7783 
    2.0218 	   10.3920 	   23.0000 	   15.0000 	   52.8113 
    2.0981 	   10.4080 	   23.0000 	   15.0000 	   52.8433 
    1.7777 	   10.4240 	   23.0000 	   15.0000 	   52.8753 
    1.7777 	   10.4400 	   23.0000 	   15.0000 	   52.9073 
    1.8845 	   10.4560 	   23.0000 	   15.0000 	   52.9393 
    1.8997 	   10.4735 	   23.0000 	   15.0000 	   52.9743 
    1.9760 	   10.4900 	   23.0000 	   15.0000 	   53.0073 
    1.8540 	   10.5075 	   23.0000 	   15.0000 	   53.0423 
    1.7929 	   10.5235 	   23.0000 	   15.0000 	   53.0743 
    1.8997 	   10.5410 	   23.0000 	   15.0000 	   53.1093 
    1.8235 	   10.5585 	   23.0000 	   15.0000 	   53.1443 
    1.8540 	   10.5750 	   23.0000 	   15.0000 	   53.1773 
    1.8692 	   10.5915 	   23.0000 	   15.0000 	   53.2103 
    1.8540 	   10.6080 	   23.0000 	   15.0000 	   53.2433 
    1.8540 	   10.6250 	   23.0000 	   15.0000 	   53.2773 
    2.0218 	   10.6420 	   23.0000 	   15.0000 	   53.3113 
    1.8845 	   10.6590 	   23.0000 	   15.0000 	   53.3453 
    1.9303 	   10.6760 	   23.0000 	   15.0000 	   53.3793 
    1.6709 	   10.6925 	   23.0000 	   15.0000 	   53.4123 
    1.7929 	   10.7095 	   23.0000 	   15.0000 	   53.4463 
    1.9455 	   10.7260 	   23.0000 	   15.0000 	   53.4793 
    1.9150 	   10.7430 	   23.0000 	   15.0000 	   53.5133 
    1.8082 	   10.7585 	   23.0000 	   15.0000 	   53.5443 
    1.8540 	   10.7745 	   23.0000 	   15.0000 	   53.5763 
    1.7777 	   10.7915 	   23.0000 	   15.0000 	   53.6103 
    1.8997 	   10.8075 	   23.0000 	   15.0000 	   53.6423 
    1.9608 	   10.8235 	   23.0000 	   15.0000 	   53.6743 
    1.7929 	   10.8420 	   23.0000 	   15.0000 	   53.7113 
    1.9303 	   10.8590 	   23.0000 	   15.0000 	   53.7453 
    1.6251 	   10.8755 	   23.0000 	   15.0000 	   53.7783 
    1.9760 	   10.8910 	   23.0000 	   15.0000 	   53.8093 
    1.8540 	   10.9065 	   23.0000 	   15.0000 	   53.8403 
    2.0218 	   10.9225 	   23.0000 	   15.0000 	   53.8723 
    1.8845 	   10.9390 	   23.0000 	   15.0000 	   53.9053 
    1.7777 	   10.9555 	   23.0000 	   15.0000 	   53.9383 
    1.9303 	   10.9715 	   23.0000 	   15.0000 	   53.9703 
    1.9303 	   10.9870 	   23.0000 	   15.0000 	   54.0013 
    1.8997 	   11.0035 	   23.0000 	   15.0000 	   54.0343 
    2.0066 	   11.0200 	   23.0000 	   15.0000 	   54.0673 
    1.6403 	   11.0380 	   23.0000 	   15.0000 	   54.1033 
    1.9150 	   11.0535 	   23.0000 	   15.0000 	   54.1343 
    1.8387 	   11.0700 	   23.0000 	   15.0000 	   54.1673 
    2.0371 	   11.0855 	   23.0000 	   15.0000 	   54.1983 
    2.0218 	   11.1015 	   23.0000 	   15.0000 	   54.2304 
    1.8692 	   11.1175 	   23.0000 	   15.0000 	   54.2624 
    1.7777 	   11.1340 	   23.0000 	   15.0000 	   54.2954 
    1.8692 	   11.1500 	   23.0000 	   15.0000 	   54.3274 
    2.0676 	   11.1660 	   23.0000 	   15.0000 	   54.3594 
    1.8235 	   11.1830 	   23.0000 	   15.0000 	   54.3934 
    1.9455 	   11.1990 	   23.0000 	   15.0000 	   54.4254 
    1.8845 	   11.2150 	   23.0000 	   15.0000 	   54.4574 
    1.6251 	   11.2320 	   23.0000 	   15.0000 	   54.4914 
    1.8997 	   11.2500 	   23.0000 	   15.0000 	   54.5274 
    1.9150 	   11.2670 	   23.0000 	   15.0000 	   54.5614 
    1.9303 	   11.2830 	   23.0000 	   15.0000 	   54.5934 
    1.9455 	   11.3000 	   23.0000 	   15.0000 	   54.6274 
    1.8235 	   11.3165 	   23.0000 	   15.0000 	   54.6604 
    2.0218 	   11.3335 	   23.0000 	   15.0000 	   54.6944 
    2.0371 	   11.3505 	   23.0000 	   15.0000 	   54.7284 
    2.0981 	   11.3675 	   23.0000 	   15.0000 	   54.7624 
    2.0523 	   11.3835 	   23.0000 	   15.0000 	   54.7944 
    1.8845 	   11.4005 	   23.0000 	   15.0000 	   54.8284 
    2.0371 	   11.4175 	   23.0000 	   15.0000 	   54.8624 
    1.9150 	   11.4370 	   23.0000 	   15.0000 	   54.9014 
    1.9150 	   11.4530 	   23.0000 	   15.0000 	   54.9334 
    1.9608 	   11.4700 	   23.0000 	   15.0000 	   54.9674 
    1.9150 	   11.4875 	   23.0000 	   15.0000 	   55.0024 
    1.8997 	   11.5035 	   23.0000 	   15.0000 	   55.0344 
    1.9608 	   11.5200 	   23.0000 	   15.0000 	   55.0674 
    2.1286 	   11.5375 	   23.0000 	   15.0000 	   55.1024 
    1.9760 	   11.5545 	   23.0000 	   15.0000 	   55.1364 
    2.0066 	   11.5720 	   23.0000 	   15.0000 	   55.1714 
    2.0523 	   11.5885 	   23.0000 	   15.0000 	   55.2044 
    2.0218 	   11.6050 	   23.0000 	   15.0000 	   55.2374 
    1.8845 	   11.6215 	   23.0000 	   15.0000 	   55.2704 
    1.8845 	   11.6395 	   23.0000 	   15.0000 	   55.3064 
    1.8692 	   11.6570 	   23.0000 	   15.0000 	   55.3414 
    1.9760 	   11.6740 	   23.0000 	   15.0000 	   55.3754 
    1.9760 	   11.6910 	   23.0000 	   15.0000 	   55.4094 
    1.9303 	   11.7070 	   23.0000 	   15.0000 	   55.4414 
    2.0981 	   11.7230 	   23.0000 	   15.0000 	   55.4734 
    1.9608 	   11.7405 	   23.0000 	   15.0000 	   55.5084 
    1.8845 	   11.7575 	   23.0000 	   15.0000 	   55.5424 
    1.9608 	   11.7740 	   23.0000 	   15.0000 	   55.5754 
    2.1134 	   11.7905 	   23.0000 	   15.0000 	   55.6084 
    2.0523 	   11.8070 	   23.0000 	   15.0000 	   55.6414 
    2.0066 	   11.8240 	   23.0000 	   15.0000 	   55.6754 
    1.8692 	   11.8440 	   23.0000 	   15.0000 	   55.7154 
    1.9608 	   11.8595 	   23.0000 	   15.0000 	   55.7464 
    1.9455 	   11.8755 	   23.0000 	   15.0000 	   55.7784 
    1.7929 	   11.8925 	   23.0000 	   15.0000 	   55.8124 
    2.0523 	   11.9090 	   23.0000 	   15.0000 	   55.8454 
    1.7624 	   11.9255 	   23.0000 	   15.0000 	   55.8784 
    2.0371 	   11.9420 	   23.0000 	   15.0000 	   55.9114 
    1.8387 	   11.9580 	   23.0000 	   15.0000 	   55.9435 
    1.9150 	   11.9750 	   23.0000 	   15.0000 	   55.9775 
    1.9913 	   11.9905 	   23.0000 	   15.0000 	   56.0085 
    1.8082 	   12.0080 	   23.0000 	   15.0000 	   56.0435 
    2.0523 	   12.0250 	   23.0000 	   15.0000 	   56.0775 
    1.9303 	   12.0425 	   23.0000 	   15.0000 	   56.1125 
    2.1439 	   12.0585 	   23.0000 	   15.0000 	   56.1445 
    2.1592 	   12.0750 	   23.0000 	   15.0000 	   56.1775 
    2.0523 	   12.0905 	   23.0000 	   15.0000 	   56.2085 
    2.1439 	   12.1070 	   23.0000 	   15.0000 	   56.2415 
    2.1897 	   12.1240 	   23.0000 	   15.0000 	   56.2755 
    2.0981 	   12.1410 	   23.0000 	   15.0000 	   56.3095 
    2.0218 	   12.1580 	   23.0000 	   15.0000 	   56.3435 
    2.0066 	   12.1745 	   23.0000 	   15.0000 	   56.3765 
    2.0676 	   12.1920 	   23.0000 	   15.0000 	   56.4115 
    2.0829 	   12.2080 	   23.0000 	   15.0000 	   56.4425 
    1.8540 	   12.2240 	   23.0000 	   15.0000 	   56.4755 
    1.8997 	   12.2440 	   23.0000 	   15.0000 	   56.5155 
    2.1744 	   12.2605 	   23.0000 	   15.0000 	   56.5485 
    2.0829 	   12.2775 	   23.0000 	   15.0000 	   56.5825 
    2.0066 	   12.2950 	   23.0000 	   15.0000 	   56.6175 
    2.0676 	   12.3125 	   23.0000 	   15.0000 	   56.6525 
    2.0371 	   12.3300 	   23.0000 	   15.0000 	   56.6875 
    2.0981 	   12.3470 	   23.0000 	   15.0000 	   56.7215 
    2.0676 	   12.3640 	   23.0000 	   15.0000 	   56.7555 
    1.9150 	   12.3800 	   23.0000 	   15.0000 	   56.7875 
    2.1134 	   12.3970 	   23.0000 	   15.0000 	   56.8215 
    2.0066 	   12.4140 	   23.0000 	   15.0000 	   56.8555 
    2.0676 	   12.4305 	   23.0000 	   15.0000 	   56.8885 
    1.8540 	   12.4475 	   23.0000 	   15.0000 	   56.9225 
    1.9760 	   12.4645 	   23.0000 	   15.0000 	   56.9565 
    2.1286 	   12.4815 	   23.0000 	   15.0000 	   56.9905 
    1.9608 	   12.4985 	   23.0000 	   15.0000 	   57.0245 
    2.1439 	   12.5155 	   23.0000 	   15.0000 	   57.0585 
    2.0829 	   12.5315 	   23.0000 	   15.0000 	   57.0905 
    2.0829 	   12.5500 	   23.0000 	   15.0000 	   57.1275 
    1.9760 	   12.5655 	   23.0000 	   15.0000 	   57.1585 
    2.0218 	   12.5820 	   23.0000 	   15.0000 	   57.1915 
    2.2507 	   12.5980 	   23.0000 	   15.0000 	   57.2235 
    1.9913 	   12.6145 	   23.0000 	   15.0000 	   57.2565 
    2.0523 	   12.6325 	   23.0000 	   15.0000 	   57.2925 
    1.8235 	   12.6490 	   23.0000 	   15.0000 	   57.3255 
    2.1744 	   12.6680 	   23.0000 	   15.0000 	   57.3635 
    2.1286 	   12.6840 	   23.0000 	   15.0000 	   57.3955 
    2.1286 	   12.7015 	   23.0000 	   15.0000 	   57.4305 
    1.7929 	   12.7185 	   23.0000 	   15.0000 	   57.4645 
    2.0218 	   12.7340 	   23.0000 	   15.0000 	   57.4955 
    2.0371 	   12.7515 	   23.0000 	   15.0000 	   57.5305 
    2.1134 	   12.7680 	   23.0000 	   15.0000 	   57.5635 
    2.0523 	   12.7865 	   23.0000 	   15.0000 	   57.6005 
    2.1439 	   12.8040 	   23.0000 	   15.0000 	   57.6355 
    2.1439 	   12.8205 	   23.0000 	   15.0000 	   57.6685 
    2.1592 	   12.8375 	   23.0000 	   15.0000 	   57.7025 
    2.0981 	   12.8545 	   23.0000 	   15.0000 	   57.7366 
    2.0981 	   12.8715 	   23.0000 	   15.0000 	   57.7706 
    2.0523 	   12.8895 	   23.0000 	   15.0000 	   57.8066 
    2.0523 	   12.9055 	   23.0000 	   15.0000 	   57.8386 
    2.1134 	   12.9225 	   23.0000 	   15.0000 	   57.8726 
    2.2812 	   12.9395 	   23.0000 	   15.0000 	   57.9066 
    2.1439 	   12.9560 	   23.0000 	   15.0000 	   57.9396 
    1.7929 	   12.9730 	   23.0000 	   15.0000 	   57.9736 
    2.0371 	   12.9895 	   23.0000 	   15.0000 	   58.0066 
    2.1439 	   13.0070 	   23.0000 	   15.0000 	   58.0416 
    2.0829 	   13.0235 	   23.0000 	   15.0000 	   58.0746 
    2.1439 	   13.0425 	   23.0000 	   15.0000 	   58.1126 
    2.1286 	   13.0590 	   23.0000 	   15.0000 	   58.1456 
    2.0523 	   13.0750 	   23.0000 	   15.0000 	   58.1776 
    2.2507 	   13.0940 	   23.0000 	   15.0000 	   58.2156 
    2.0829 	   13.1110 	   23.0000 	   15.0000 	   58.2496 
    2.2202 	   13.1285 	   23.0000 	   15.0000 	   58.2846 
    2.2049 	   13.1450 	   23.0000 	   15.0000 	   58.3176 
    2.0829 	   13.1615 	   23.0000 	   15.0000 	   58.3506 
    2.0523 	   13.1785 	   23.0000 	   15.0000 	   58.3846 
    2.3728 	   13.1950 	   23.0000 	   15.0000 	   58.4176 
    2.0218 	   13.2125 	   23.0000 	   15.0000 	   58.4526 
    2.1897 	   13.2315 	   23.0000 	   15.0000 	   58.4906 
    2.1439 	   13.2475 	   23.0000 	   15.0000 	   58.5226 
    2.0676 	   13.2645 	   23.0000 	   15.0000 	   58.5566 
    2.0981 	   13.2810 	   23.0000 	   15.0000 	   58.5896 
    2.0676 	   13.2995 	   23.0000 	   15.0000 	   58.6266 
    2.0066 	   13.3170 	   23.0000 	   15.0000 	   58.6616 
    1.8387 	   13.3330 	   23.0000 	   15.0000 	   58.6936 
    2.1439 	   13.3510 	   23.0000 	   15.0000 	   58.7296 
    2.0981 	   13.3670 	   23.0000 	   15.0000 	   58.7616 
    2.2049 	   13.3840 	   23.0000 	   15.0000 	   58.7956 
    1.8997 	   13.4005 	   23.0000 	   15.0000 	   58.8286 
    2.0676 	   13.4175 	   23.0000 	   15.0000 	   58.8626 
    1.9608 	   13.4340 	   23.0000 	   15.0000 	   58.8956 
    2.1897 	   13.4505 	   23.0000 	   15.0000 	   58.9286 
    2.2202 	   13.4680 	   23.0000 	   15.0000 	   58.9636 
    2.0676 	   13.4840 	   23.0000 	   15.0000 	   58.9956 
    2.2812 	   13.5000 	   23.0000 	   15.0000 	   59.0276 
    2.2354 	   13.5170 	   23.0000 	   15.0000 	   59.0616 
    2.2507 	   13.5360 	   23.0000 	   15.0000 	   59.0996 
    2.2660 	   13.5535 	   23.0000 	   15.0000 	   59.1346 
    2.2049 	   13.5690 	   23.0000 	   15.0000 	   59.1656 
    2.1439 	   13.5865 	   23.0000 	   15.0000 	   59.2006 
    2.2660 	   13.6030 	   23.0000 	   15.0000 	   59.2336 
    2.3117 	   13.6200 	   23.0000 	   15.0000 	   59.2676 
    2.1134 	   13.6390 	   23.0000 	   15.0000 	   59.3056 
    2.2049 	   13.6555 	   23.0000 	   15.0000 	   59.3386 
    2.2354 	   13.6720 	   23.0000 	   15.0000 	   59.3716 
    2.1897 	   13.6895 	   23.0000 	   15.0000 	   59.4066 
    2.1897 	   13.7060 	   23.0000 	   15.0000 	   59.4397 
    2.1744 	   13.7245 	   23.0000 	   15.0000 	   59.4767 
    2.0981 	   13.7405 	   23.0000 	   15.0000 	   59.5087 
    2.3575 	   13.7575 	   23.0000 	   15.0000 	   59.5427 
    2.2965 	   13.7745 	   23.0000 	   15.0000 	   59.5767 
    2.1592 	   13.7935 	   23.0000 	   15.0000 	   59.6147 
    2.1286 	   13.8155 	   23.0000 	   15.0000 	   59.6587 
    2.0523 	   13.8325 	   23.0000 	   15.0000 	   59.6927 
    2.1592 	   13.8495 	   23.0000 	   15.0000 	   59.7267 
    2.2049 	   13.8665 	   23.0000 	   15.0000 	   59.7607 
    2.0981 	   13.8840 	   23.0000 	   15.0000 	   59.7957 
    2.1439 	   13.9010 	   23.0000 	   15.0000 	   59.8297 
    2.2507 	   13.9180 	   23.0000 	   15.0000 	   59.8637 
    2.2354 	   13.9350 	   23.0000 	   15.0000 	   59.8977 
    2.2202 	   13.9520 	   23.0000 	   15.0000 	   59.9317 
    1.9913 	   13.9690 	   23.0000 	   15.0000 	   59.9657 
    2.2507 	   13.9855 	   23.0000 	   15.0000 	   59.9987 
    2.2660 	   14.0030 	   23.0000 	   16.0000 	    0.0337 
    2.1897 	   14.0200 	   23.0000 	   16.0000 	    0.0677 
    2.3575 	   14.0375 	   23.0000 	   16.0000 	    0.1027 
    2.1134 	   14.0555 	   23.0000 	   16.0000 	    0.1387 
    2.1134 	   14.0725 	   23.0000 	   16.0000 	    0.1727 
    2.3728 	   14.0885 	   23.0000 	   16.0000 	    0.2047 
    2.2354 	   14.1055 	   23.0000 	   16.0000 	    0.2387 
    2.1439 	   14.1230 	   23.0000 	   16.0000 	    0.2737 
    2.1744 	   14.1395 	   23.0000 	   16.0000 	    0.3067 
    2.3270 	   14.1575 	   23.0000 	   16.0000 	    0.3427 
    2.1744 	   14.1740 	   23.0000 	   16.0000 	    0.3757 
    2.0829 	   14.1890 	   23.0000 	   16.0000 	    0.4057 
    2.3117 	   14.2040 	   23.0000 	   16.0000 	    0.4357 
    2.1592 	   14.2190 	   23.0000 	   16.0000 	    0.4657 
    2.2660 	   14.2335 	   23.0000 	   16.0000 	    0.4947 
    2.1286 	   14.2485 	   23.0000 	   16.0000 	    0.5247 
    2.0829 	   14.2655 	   23.0000 	   16.0000 	    0.5587 
    2.3117 	   14.2825 	   23.0000 	   16.0000 	    0.5927 
    2.2354 	   14.3020 	   23.0000 	   16.0000 	    0.6317 
    2.2202 	   14.3195 	   23.0000 	   16.0000 	    0.6667 
    2.1744 	   14.3375 	   23.0000 	   16.0000 	    0.7027 
    2.3728 	   14.3530 	   23.0000 	   16.0000 	    0.7337 
    2.2049 	   14.3705 	   23.0000 	   16.0000 	    0.7687 
    2.2965 	   14.3865 	   23.0000 	   16.0000 	    0.8007 
    2.2049 	   14.4040 	   23.0000 	   16.0000 	    0.8357 
    2.2660 	   14.4205 	   23.0000 	   16.0000 	    0.8687 
    2.3423 	   14.4375 	   23.0000 	   16.0000 	    0.9027 
    2.2812 	   14.4545 	   23.0000 	   16.0000 	    0.9367 
    2.2812 	   14.4720 	   23.0000 	   16.0000 	    0.9707 
    2.3423 	   14.4900 	   23.0000 	   16.0000 	    1.0077 
    2.2812 	   14.5065 	   23.0000 	   16.0000 	    1.0407 
    2.2507 	   14.5230 	   23.0000 	   16.0000 	    1.0737 
    2.3575 	   14.5435 	   23.0000 	   16.0000 	    1.1147 
    2.3270 	   14.5600 	   23.0000 	   16.0000 	    1.1477 
    2.2965 	   14.5770 	   23.0000 	   16.0000 	    1.1817 
    2.2660 	   14.5930 	   23.0000 	   16.0000 	    1.2138 
    2.1897 	   14.6100 	   23.0000 	   16.0000 	    1.2478 
    2.2202 	   14.6265 	   23.0000 	   16.0000 	    1.2808 
    2.4033 	   14.6440 	   23.0000 	   16.0000 	    1.3158 
    2.2965 	   14.6620 	   23.0000 	   16.0000 	    1.3518 
    2.3575 	   14.6795 	   23.0000 	   16.0000 	    1.3868 
    2.3575 	   14.6975 	   23.0000 	   16.0000 	    1.4228 
    2.1439 	   14.7135 	   23.0000 	   16.0000 	    1.4548 
    2.3270 	   14.7310 	   23.0000 	   16.0000 	    1.4898 
    2.3270 	   14.7485 	   23.0000 	   16.0000 	    1.5248 
    2.1744 	   14.7660 	   23.0000 	   16.0000 	    1.5598 
    2.5101 	   14.7825 	   23.0000 	   16.0000 	    1.5928 
    2.2507 	   14.8035 	   23.0000 	   16.0000 	    1.6348 
    2.3423 	   14.8215 	   23.0000 	   16.0000 	    1.6708 
    2.3270 	   14.8385 	   23.0000 	   16.0000 	    1.7048 
    2.1439 	   14.8570 	   23.0000 	   16.0000 	    1.7418 
    2.3423 	   14.8735 	   23.0000 	   16.0000 	    1.7748 
    2.2354 	   14.8905 	   23.0000 	   16.0000 	    1.8088 
    2.3270 	   14.9070 	   23.0000 	   16.0000 	    1.8418 
    2.2202 	   14.9235 	   23.0000 	   16.0000 	    1.8748 
    2.2965 	   14.9400 	   23.0000 	   16.0000 	    1.9078 
    2.3270 	   14.9570 	   23.0000 	   16.0000 	    1.9418 
    2.3575 	   14.9745 	   23.0000 	   16.0000 	    1.9768 
    2.3880 	   14.9915 	   23.0000 	   16.0000 	    2.0108 
    2.2812 	   15.0080 	   23.0000 	   16.0000 	    2.0438 
    2.2354 	   15.0255 	   23.0000 	   16.0000 	    2.0788 
    2.3423 	   15.0440 	   23.0000 	   16.0000 	    2.1158 
    2.2507 	   15.0605 	   23.0000 	   16.0000 	    2.1488 
    2.2354 	   15.0785 	   23.0000 	   16.0000 	    2.1838 
    2.3880 	   15.0960 	   23.0000 	   16.0000 	    2.2188 
    2.4796 	   15.1120 	   23.0000 	   16.0000 	    2.2508 
    2.3575 	   15.1295 	   23.0000 	   16.0000 	    2.2858 
    2.2812 	   15.1465 	   23.0000 	   16.0000 	    2.3198 
    2.4186 	   15.1630 	   23.0000 	   16.0000 	    2.3528 
    2.4491 	   15.1805 	   23.0000 	   16.0000 	    2.3878 
    2.3117 	   15.1980 	   23.0000 	   16.0000 	    2.4228 
    2.2507 	   15.2160 	   23.0000 	   16.0000 	    2.4588 
    2.3270 	   15.2325 	   23.0000 	   16.0000 	    2.4918 
    2.0676 	   15.2490 	   23.0000 	   16.0000 	    2.5248 
    2.0981 	   15.2665 	   23.0000 	   16.0000 	    2.5598 
    2.3575 	   15.2830 	   23.0000 	   16.0000 	    2.5928 
    2.2965 	   15.3000 	   23.0000 	   16.0000 	    2.6268 
    2.3728 	   15.3170 	   23.0000 	   16.0000 	    2.6608 
    2.3880 	   15.3340 	   23.0000 	   16.0000 	    2.6948 
    2.3575 	   15.3510 	   23.0000 	   16.0000 	    2.7288 
    2.3117 	   15.3680 	   23.0000 	   16.0000 	    2.7628 
    2.3270 	   15.3845 	   23.0000 	   16.0000 	    2.7958 
    2.2507 	   15.4020 	   23.0000 	   16.0000 	    2.8308 
    2.4033 	   15.4200 	   23.0000 	   16.0000 	    2.8668 
    2.3728 	   15.4365 	   23.0000 	   16.0000 	    2.8998 
    2.3575 	   15.4530 	   23.0000 	   16.0000 	    2.9328 
    2.2812 	   15.4700 	   23.0000 	   16.0000 	    2.9669 
    2.4338 	   15.4875 	   23.0000 	   16.0000 	    3.0019 
    2.3423 	   15.5055 	   23.0000 	   16.0000 	    3.0379 
    2.3880 	   15.5230 	   23.0000 	   16.0000 	    3.0729 
    2.2507 	   15.5420 	   23.0000 	   16.0000 	    3.1109 
    2.3270 	   15.5585 	   23.0000 	   16.0000 	    3.1439 
    2.4796 	   15.5765 	   23.0000 	   16.0000 	    3.1799 
    2.3423 	   15.5935 	   23.0000 	   16.0000 	    3.2139 
    2.3880 	   15.6110 	   23.0000 	   16.0000 	    3.2489 
    2.3880 	   15.6275 	   23.0000 	   16.0000 	    3.2819 
    2.3270 	   15.6445 	   23.0000 	   16.0000 	    3.3159 
    2.3728 	   15.6615 	   23.0000 	   16.0000 	    3.3489 
    2.5559 	   15.6780 	   23.0000 	   16.0000 	    3.3829 
    2.3880 	   15.6950 	   23.0000 	   16.0000 	    3.4169 
    2.3880 	   15.7110 	   23.0000 	   16.0000 	    3.4489 
    2.3880 	   15.7285 	   23.0000 	   16.0000 	    3.4839 
    2.5406 	   15.7465 	   23.0000 	   16.0000 	    3.5199 
    2.3575 	   15.7625 	   23.0000 	   16.0000 	    3.5519 
    2.3423 	   15.7795 	   23.0000 	   16.0000 	    3.5859 
    2.3423 	   15.7955 	   23.0000 	   16.0000 	    3.6179 
    2.3423 	   15.8160 	   23.0000 	   16.0000 	    3.6589 
    2.3270 	   15.8340 	   23.0000 	   16.0000 	    3.6949 
    2.3728 	   15.8515 	   23.0000 	   16.0000 	    3.7299 
    2.3270 	   15.8695 	   23.0000 	   16.0000 	    3.7649 
    2.2507 	   15.8865 	   23.0000 	   16.0000 	    3.7999 
    2.4186 	   15.9035 	   23.0000 	   16.0000 	    3.8339 
    2.2660 	   15.9210 	   23.0000 	   16.0000 	    3.8689 
    2.4643 	   15.9380 	   23.0000 	   16.0000 	    3.9029 
    2.4643 	   15.9545 	   23.0000 	   16.0000 	    3.9359 
    2.4338 	   15.9710 	   23.0000 	   16.0000 	    3.9689 
    2.2660 	   15.9875 	   23.0000 	   16.0000 	    4.0019 
    2.4491 	   16.0050 	   23.0000 	   16.0000 	    4.0369 
    2.3728 	   16.0235 	   23.0000 	   16.0000 	    4.0739 
    2.3880 	   16.0410 	   23.0000 	   16.0000 	    4.1089 
    2.4186 	   16.0585 	   23.0000 	   16.0000 	    4.1439 
    2.4491 	   16.0760 	   23.0000 	   16.0000 	    4.1789 
    2.4948 	   16.0930 	   23.0000 	   16.0000 	    4.2129 
    2.3423 	   16.1100 	   23.0000 	   16.0000 	    4.2469 
    2.4186 	   16.1275 	   23.0000 	   16.0000 	    4.2819 
    2.4643 	   16.1440 	   23.0000 	   16.0000 	    4.3149 
    2.3728 	   16.1610 	   23.0000 	   16.0000 	    4.3489 
    2.3423 	   16.1785 	   23.0000 	   16.0000 	    4.3839 
    2.4643 	   16.1955 	   23.0000 	   16.0000 	    4.4179 
    2.7543 	   16.2130 	   23.0000 	   16.0000 	    4.4529 
    2.4491 	   16.2300 	   23.0000 	   16.0000 	    4.4869 
    2.4186 	   16.2490 	   23.0000 	   16.0000 	    4.5249 
    2.4643 	   16.2665 	   23.0000 	   16.0000 	    4.5599 
    2.4033 	   16.2825 	   23.0000 	   16.0000 	    4.5919 
    2.5101 	   16.3005 	   23.0000 	   16.0000 	    4.6279 
    2.3728 	   16.3180 	   23.0000 	   16.0000 	    4.6629 
    2.4033 	   16.3350 	   23.0000 	   16.0000 	    4.6970 
    2.4643 	   16.3525 	   23.0000 	   16.0000 	    4.7320 
    2.5559 	   16.3695 	   23.0000 	   16.0000 	    4.7660 
    2.3880 	   16.3865 	   23.0000 	   16.0000 	    4.8000 
    2.3270 	   16.4040 	   23.0000 	   16.0000 	    4.8350 
    2.5864 	   16.4210 	   23.0000 	   16.0000 	    4.8690 
    2.4186 	   16.4375 	   23.0000 	   16.0000 	    4.9020 
    2.4948 	   16.4545 	   23.0000 	   16.0000 	    4.9360 
    2.4338 	   16.4725 	   23.0000 	   16.0000 	    4.9710 
    2.2354 	   16.4895 	   23.0000 	   16.0000 	    5.0060 
    2.5406 	   16.5065 	   23.0000 	   16.0000 	    5.0400 
    2.5406 	   16.5235 	   23.0000 	   16.0000 	    5.0740 
    2.3575 	   16.5415 	   23.0000 	   16.0000 	    5.1100 
    2.3728 	   16.5580 	   23.0000 	   16.0000 	    5.1430 
    2.5559 	   16.5750 	   23.0000 	   16.0000 	    5.1770 
    2.1592 	   16.5920 	   23.0000 	   16.0000 	    5.2110 
    2.4491 	   16.6085 	   23.0000 	   16.0000 	    5.2440 
    2.3575 	   16.6265 	   23.0000 	   16.0000 	    5.2800 
    2.5101 	   16.6440 	   23.0000 	   16.0000 	    5.3150 
    2.3728 	   16.6605 	   23.0000 	   16.0000 	    5.3480 
    2.4186 	   16.6785 	   23.0000 	   16.0000 	    5.3840 
    2.4033 	   16.6955 	   23.0000 	   16.0000 	    5.4180 
    2.5101 	   16.7120 	   23.0000 	   16.0000 	    5.4510 
    2.4338 	   16.7300 	   23.0000 	   16.0000 	    5.4870 
    2.3728 	   16.7460 	   23.0000 	   16.0000 	    5.5190 
    2.3270 	   16.7630 	   23.0000 	   16.0000 	    5.5530 
    2.6017 	   16.7810 	   23.0000 	   16.0000 	    5.5890 
    2.6322 	   16.7990 	   23.0000 	   16.0000 	    5.6250 
    2.4491 	   16.8165 	   23.0000 	   16.0000 	    5.6600 
    2.4338 	   16.8330 	   23.0000 	   16.0000 	    5.6930 
    2.2049 	   16.8500 	   23.0000 	   16.0000 	    5.7270 
    2.6169 	   16.8675 	   23.0000 	   16.0000 	    5.7620 
    2.5101 	   16.8840 	   23.0000 	   16.0000 	    5.7950 
    2.5406 	   16.8990 	   23.0000 	   16.0000 	    5.8250 
    2.2507 	   16.9145 	   23.0000 	   16.0000 	    5.8560 
    2.5406 	   16.9295 	   23.0000 	   16.0000 	    5.8860 
    2.2965 	   16.9460 	   23.0000 	   16.0000 	    5.9190 
    2.5254 	   16.9625 	   23.0000 	   16.0000 	    5.9520 
    2.2660 	   16.9770 	   23.0000 	   16.0000 	    5.9810 
    2.4033 	   16.9930 	   23.0000 	   16.0000 	    6.0130 
    2.4796 	   17.0105 	   23.0000 	   16.0000 	    6.0480 
    2.5559 	   17.0285 	   23.0000 	   16.0000 	    6.0840 
    2.5254 	   17.0485 	   23.0000 	   16.0000 	    6.1240 
    2.5864 	   17.0670 	   23.0000 	   16.0000 	    6.1610 
    2.6169 	   17.0850 	   23.0000 	   16.0000 	    6.1960 
    2.6932 	   17.1015 	   23.0000 	   16.0000 	    6.2300 
    2.5711 	   17.1195 	   23.0000 	   16.0000 	    6.2660 
    2.6169 	   17.1370 	   23.0000 	   16.0000 	    6.3010 
    2.4796 	   17.1545 	   23.0000 	   16.0000 	    6.3360 
    2.4948 	   17.1725 	   23.0000 	   16.0000 	    6.3720 
    2.5559 	   17.1890 	   23.0000 	   16.0000 	    6.4050 
    2.6169 	   17.2065 	   23.0000 	   16.0000 	    6.4401 
    2.3880 	   17.2235 	   23.0000 	   16.0000 	    6.4741 
    2.6322 	   17.2405 	   23.0000 	   16.0000 	    6.5081 
    2.4948 	   17.2580 	   23.0000 	   16.0000 	    6.5431 
    2.5711 	   17.2755 	   23.0000 	   16.0000 	    6.5781 
    2.6932 	   17.2945 	   23.0000 	   16.0000 	    6.6161 
    2.5406 	   17.3115 	   23.0000 	   16.0000 	    6.6501 
    2.6169 	   17.3280 	   23.0000 	   16.0000 	    6.6831 
    2.6017 	   17.3450 	   23.0000 	   16.0000 	    6.7171 
    2.7085 	   17.3625 	   23.0000 	   16.0000 	    6.7521 
    2.2507 	   17.3795 	   23.0000 	   16.0000 	    6.7861 
    2.5101 	   17.3970 	   23.0000 	   16.0000 	    6.8211 
    2.6474 	   17.4140 	   23.0000 	   16.0000 	    6.8551 
    2.6780 	   17.4320 	   23.0000 	   16.0000 	    6.8911 
    2.7543 	   17.4495 	   23.0000 	   16.0000 	    6.9261 
    2.5559 	   17.4675 	   23.0000 	   16.0000 	    6.9621 
    2.5559 	   17.4845 	   23.0000 	   16.0000 	    6.9961 
    2.5254 	   17.5010 	   23.0000 	   16.0000 	    7.0291 
    2.6322 	   17.5195 	   23.0000 	   16.0000 	    7.0661 
    2.5254 	   17.5385 	   23.0000 	   16.0000 	    7.1041 
    2.6017 	   17.5555 	   23.0000 	   16.0000 	    7.1381 
    2.5101 	   17.5720 	   23.0000 	   16.0000 	    7.1711 
    2.5254 	   17.5900 	   23.0000 	   16.0000 	    7.2071 
    2.5864 	   17.6070 	   23.0000 	   16.0000 	    7.2411 
    2.5711 	   17.6240 	   23.0000 	   16.0000 	    7.2751 
    2.6780 	   17.6420 	   23.0000 	   16.0000 	    7.3111 
    2.2660 	   17.6600 	   23.0000 	   16.0000 	    7.3471 
    2.6627 	   17.6780 	   23.0000 	   16.0000 	    7.3831 
    2.6474 	   17.6955 	   23.0000 	   16.0000 	    7.4181 
    2.7848 	   17.7125 	   23.0000 	   16.0000 	    7.4521 
    2.6017 	   17.7300 	   23.0000 	   16.0000 	    7.4871 
    2.6932 	   17.7475 	   23.0000 	   16.0000 	    7.5211 
    2.6169 	   17.7645 	   23.0000 	   16.0000 	    7.5561 
    2.6780 	   17.7815 	   23.0000 	   16.0000 	    7.5901 
    2.7543 	   17.8000 	   23.0000 	   16.0000 	    7.6271 
    2.4948 	   17.8175 	   23.0000 	   16.0000 	    7.6621 
    2.5406 	   17.8345 	   23.0000 	   16.0000 	    7.6961 
    2.5406 	   17.8520 	   23.0000 	   16.0000 	    7.7311 
    2.6169 	   17.8700 	   23.0000 	   16.0000 	    7.7671 
    2.8000 	   17.8865 	   23.0000 	   16.0000 	    7.8001 
    2.4643 	   17.9045 	   23.0000 	   16.0000 	    7.8361 
    2.6474 	   17.9225 	   23.0000 	   16.0000 	    7.8721 
    2.6017 	   17.9410 	   23.0000 	   16.0000 	    7.9091 
    2.4491 	   17.9580 	   23.0000 	   16.0000 	    7.9431 
    2.6627 	   17.9755 	   23.0000 	   16.0000 	    7.9781 
    2.5864 	   17.9930 	   23.0000 	   16.0000 	    8.0131 
    2.3270 	   18.0100 	   23.0000 	   16.0000 	    8.0471 
    2.5406 	   18.0280 	   23.0000 	   16.0000 	    8.0831 
    2.7543 	   18.0470 	   23.0000 	   16.0000 	    8.1211 
    2.5406 	   18.0645 	   23.0000 	   16.0000 	    8.1561 
    2.7848 	   18.0825 	   23.0000 	   16.0000 	    8.1922 
    2.5406 	   18.1000 	   23.0000 	   16.0000 	    8.2272 
    2.5864 	   18.1175 	   23.0000 	   16.0000 	    8.2622 
    2.6627 	   18.1345 	   23.0000 	   16.0000 	    8.2962 
    2.5711 	   18.1525 	   23.0000 	   16.0000 	    8.3322 
    2.7695 	   18.1705 	   23.0000 	   16.0000 	    8.3682 
    2.2812 	   18.1885 	   23.0000 	   16.0000 	    8.4042 
    2.7390 	   18.2055 	   23.0000 	   16.0000 	    8.4382 
    2.7695 	   18.2225 	   23.0000 	   16.0000 	    8.4722 
    2.6322 	   18.2390 	   23.0000 	   16.0000 	    8.5052 
    2.7085 	   18.2555 	   23.0000 	   16.0000 	    8.5382 
    2.5711 	   18.2735 	   23.0000 	   16.0000 	    8.5742 
    2.5101 	   18.2910 	   23.0000 	   16.0000 	    8.6092 
    2.4796 	   18.3085 	   23.0000 	   16.0000 	    8.6442 
    2.8611 	   18.3260 	   23.0000 	   16.0000 	    8.6792 
    2.6932 	   18.3435 	   23.0000 	   16.0000 	    8.7142 
    2.7237 	   18.3615 	   23.0000 	   16.0000 	    8.7502 
    2.6932 	   18.3790 	   23.0000 	   16.0000 	    8.7852 
    2.8305 	   18.3965 	   23.0000 	   16.0000 	    8.8202 
    2.5864 	   18.4140 	   23.0000 	   16.0000 	    8.8552 
    2.6322 	   18.4315 	   23.0000 	   16.0000 	    8.8902 
    2.5101 	   18.4495 	   23.0000 	   16.0000 	    8.9262 
    2.5711 	   18.4675 	   23.0000 	   16.0000 	    8.9622 
    2.7237 	   18.4845 	   23.0000 	   16.0000 	    8.9962 
    2.8000 	   18.5010 	   23.0000 	   16.0000 	    9.0292 
    2.7390 	   18.5180 	   23.0000 	   16.0000 	    9.0632 
    2.4338 	   18.5365 	   23.0000 	   16.0000 	    9.1002 
    2.7237 	   18.5545 	   23.0000 	   16.0000 	    9.1362 
    2.6780 	   18.5725 	   23.0000 	   16.0000 	    9.1722 
    2.6780 	   18.5895 	   23.0000 	   16.0000 	    9.2062 
    2.6169 	   18.6075 	   23.0000 	   16.0000 	    9.2422 
    2.6932 	   18.6250 	   23.0000 	   16.0000 	    9.2772 
    2.6474 	   18.6420 	   23.0000 	   16.0000 	    9.3112 
    2.8153 	   18.6595 	   23.0000 	   16.0000 	    9.3462 
    2.6474 	   18.6765 	   23.0000 	   16.0000 	    9.3802 
    2.6627 	   18.6940 	   23.0000 	   16.0000 	    9.4152 
    2.7390 	   18.7120 	   23.0000 	   16.0000 	    9.4512 
    2.3270 	   18.7295 	   23.0000 	   16.0000 	    9.4862 
    2.7695 	   18.7465 	   23.0000 	   16.0000 	    9.5202 
    2.6169 	   18.7640 	   23.0000 	   16.0000 	    9.5552 
    2.6322 	   18.7815 	   23.0000 	   16.0000 	    9.5902 
    2.8305 	   18.7990 	   23.0000 	   16.0000 	    9.6252 
    2.6017 	   18.8165 	   23.0000 	   16.0000 	    9.6602 
    2.8000 	   18.8345 	   23.0000 	   16.0000 	    9.6962 
    2.6322 	   18.8515 	   23.0000 	   16.0000 	    9.7302 
    2.7237 	   18.8700 	   23.0000 	   16.0000 	    9.7672 
    2.6932 	   18.8875 	   23.0000 	   16.0000 	    9.8022 
    2.7085 	   18.9040 	   23.0000 	   16.0000 	    9.8352 
    2.7237 	   18.9220 	   23.0000 	   16.0000 	    9.8712 
    2.6474 	   18.9395 	   23.0000 	   16.0000 	    9.9062 
    2.7543 	   18.9580 	   23.0000 	   16.0000 	    9.9433 
    2.7848 	   18.9765 	   23.0000 	   16.0000 	    9.9803 
    2.7085 	   18.9935 	   23.0000 	   16.0000 	   10.0143 
    2.7390 	   19.0110 	   23.0000 	   16.0000 	   10.0493 
    2.8153 	   19.0280 	   23.0000 	   16.0000 	   10.0833 
    2.8000 	   19.0475 	   23.0000 	   16.0000 	   10.1223 
    2.7237 	   19.0645 	   23.0000 	   16.0000 	   10.1563 
    2.6627 	   19.0820 	   23.0000 	   16.0000 	   10.1913 
    2.8000 	   19.0990 	   23.0000 	   16.0000 	   10.2253 
    2.4491 	   19.1170 	   23.0000 	   16.0000 	   10.2613 
    2.6932 	   19.1345 	   23.0000 	   16.0000 	   10.2963 
    2.7848 	   19.1515 	   23.0000 	   16.0000 	   10.3303 
    2.7848 	   19.1685 	   23.0000 	   16.0000 	   10.3643 
    2.8305 	   19.1855 	   23.0000 	   16.0000 	   10.3983 
    2.5864 	   19.2010 	   23.0000 	   16.0000 	   10.4293 
    2.8763 	   19.2185 	   23.0000 	   16.0000 	   10.4633 
    2.8305 	   19.2360 	   23.0000 	   16.0000 	   10.4993 
    2.7085 	   19.2535 	   23.0000 	   16.0000 	   10.5343 
    2.9679 	   19.2705 	   23.0000 	   16.0000 	   10.5683 
    2.7390 	   19.2890 	   23.0000 	   16.0000 	   10.6053 
    2.8305 	   19.3085 	   23.0000 	   16.0000 	   10.6443 
    2.7390 	   19.3270 	   23.0000 	   16.0000 	   10.6813 
    2.8153 	   19.3445 	   23.0000 	   16.0000 	   10.7163 
    2.6474 	   19.3625 	   23.0000 	   16.0000 	   10.7523 
    2.7237 	   19.3805 	   23.0000 	   16.0000 	   10.7883 
    2.8305 	   19.3980 	   23.0000 	   16.0000 	   10.8233 
    2.9526 	   19.4160 	   23.0000 	   16.0000 	   10.8593 
    2.7695 	   19.4340 	   23.0000 	   16.0000 	   10.8953 
    2.7543 	   19.4515 	   23.0000 	   16.0000 	   10.9303 
    2.8000 	   19.4685 	   23.0000 	   16.0000 	   10.9643 
    2.8763 	   19.4870 	   23.0000 	   16.0000 	   11.0013 
    2.7237 	   19.5045 	   23.0000 	   16.0000 	   11.0363 
    2.7390 	   19.5225 	   23.0000 	   16.0000 	   11.0723 
    2.6780 	   19.5425 	   23.0000 	   16.0000 	   11.1123 
    2.7543 	   19.5605 	   23.0000 	   16.0000 	   11.1483 
    2.8611 	   19.5770 	   23.0000 	   16.0000 	   11.1813 
    2.7085 	   19.5955 	   23.0000 	   16.0000 	   11.2183 
    2.8458 	   19.6130 	   23.0000 	   16.0000 	   11.2533 
    2.7085 	   19.6310 	   23.0000 	   16.0000 	   11.2893 
    2.7390 	   19.6490 	   23.0000 	   16.0000 	   11.3253 
    2.8153 	   19.6670 	   23.0000 	   16.0000 	   11.3613 
    2.7237 	   19.6840 	   23.0000 	   16.0000 	   11.3953 
    2.8763 	   19.7015 	   23.0000 	   16.0000 	   11.4303 
    2.5711 	   19.7195 	   23.0000 	   16.0000 	   11.4663 
    2.8458 	   19.7375 	   23.0000 	   16.0000 	   11.5023 
    2.7695 	   19.7560 	   23.0000 	   16.0000 	   11.5393 
    2.7695 	   19.7730 	   23.0000 	   16.0000 	   11.5733 
    2.9374 	   19.7910 	   23.0000 	   16.0000 	   11.6093 
    2.7390 	   19.8150 	   23.0000 	   16.0000 	   11.6573 
    2.7543 	   19.8295 	   23.0000 	   16.0000 	   11.6863 
    2.9068 	   19.8470 	   23.0000 	   16.0000 	   11.7214 
    2.7237 	   19.8645 	   23.0000 	   16.0000 	   11.7564 
    2.9068 	   19.8805 	   23.0000 	   16.0000 	   11.7884 
    2.9984 	   19.8980 	   23.0000 	   16.0000 	   11.8234 
    2.8763 	   19.9155 	   23.0000 	   16.0000 	   11.8584 
    2.7543 	   19.9325 	   23.0000 	   16.0000 	   11.8924 
    2.6474 	   19.9495 	   23.0000 	   16.0000 	   11.9264 
    2.6017 	   19.9670 	   23.0000 	   16.0000 	   11.9614 
    2.8000 	   19.9850 	   23.0000 	   16.0000 	   11.9974 
    2.8458 	   20.0020 	   23.0000 	   16.0000 	   12.0314 
    2.9068 	   20.0185 	   23.0000 	   16.0000 	   12.0644 
    2.8611 	   20.0380 	   23.0000 	   16.0000 	   12.1034 
    2.9068 	   20.0565 	   23.0000 	   16.0000 	   12.1404 
    2.7543 	   20.0740 	   23.0000 	   16.0000 	   12.1754 
    2.8916 	   20.0925 	   23.0000 	   16.0000 	   12.2124 
    2.8611 	   20.1105 	   23.0000 	   16.0000 	   12.2484 
    2.9221 	   20.1270 	   23.0000 	   16.0000 	   12.2814 
    2.9831 	   20.1450 	   23.0000 	   16.0000 	   12.3174 
    2.9221 	   20.1635 	   23.0000 	   16.0000 	   12.3544 
    3.0594 	   20.1820 	   23.0000 	   16.0000 	   12.3914 
    2.7695 	   20.2005 	   23.0000 	   16.0000 	   12.4284 
    2.8763 	   20.2210 	   23.0000 	   16.0000 	   12.4694 
    2.8916 	   20.2395 	   23.0000 	   16.0000 	   12.5064 
    2.8611 	   20.2570 	   23.0000 	   16.0000 	   12.5414 
    2.9374 	   20.2750 	   23.0000 	   16.0000 	   12.5774 
    2.7237 	   20.2935 	   23.0000 	   16.0000 	   12.6144 
    2.9068 	   20.3105 	   23.0000 	   16.0000 	   12.6484 
    2.8305 	   20.3280 	   23.0000 	   16.0000 	   12.6834 
    2.9068 	   20.3465 	   23.0000 	   16.0000 	   12.7204 
    2.8305 	   20.3640 	   23.0000 	   16.0000 	   12.7554 
    2.8153 	   20.3820 	   23.0000 	   16.0000 	   12.7914 
    2.8611 	   20.4005 	   23.0000 	   16.0000 	   12.8284 
    2.9526 	   20.4185 	   23.0000 	   16.0000 	   12.8644 
    2.7695 	   20.4365 	   23.0000 	   16.0000 	   12.9004 
    2.9068 	   20.4555 	   23.0000 	   16.0000 	   12.9384 
    2.8916 	   20.4735 	   23.0000 	   16.0000 	   12.9744 
    2.8763 	   20.4915 	   23.0000 	   16.0000 	   13.0104 
    2.8305 	   20.5095 	   23.0000 	   16.0000 	   13.0464 
    2.9068 	   20.5270 	   23.0000 	   16.0000 	   13.0814 
    3.0137 	   20.5465 	   23.0000 	   16.0000 	   13.1204 
    3.0594 	   20.5640 	   23.0000 	   16.0000 	   13.1554 
    3.0289 	   20.5820 	   23.0000 	   16.0000 	   13.1914 
    2.9679 	   20.6000 	   23.0000 	   16.0000 	   13.2274 
    2.9221 	   20.6185 	   23.0000 	   16.0000 	   13.2644 
    2.8305 	   20.6365 	   23.0000 	   16.0000 	   13.3004 
    2.8458 	   20.6555 	   23.0000 	   16.0000 	   13.3384 
    2.8916 	   20.6735 	   23.0000 	   16.0000 	   13.3744 
    2.9374 	   20.6915 	   23.0000 	   16.0000 	   13.4104 
    2.8000 	   20.7090 	   23.0000 	   16.0000 	   13.4455 
    2.9831 	   20.7270 	   23.0000 	   16.0000 	   13.4815 
    3.0137 	   20.7450 	   23.0000 	   16.0000 	   13.5175 
    2.9831 	   20.7625 	   23.0000 	   16.0000 	   13.5525 
    2.9831 	   20.7805 	   23.0000 	   16.0000 	   13.5885 
    2.8305 	   20.7975 	   23.0000 	   16.0000 	   13.6225 
    2.9679 	   20.8160 	   23.0000 	   16.0000 	   13.6595 
    2.8305 	   20.8335 	   23.0000 	   16.0000 	   13.6935 
    3.0137 	   20.8520 	   23.0000 	   16.0000 	   13.7315 
    3.0442 	   20.8695 	   23.0000 	   16.0000 	   13.7665 
    2.7543 	   20.8865 	   23.0000 	   16.0000 	   13.8005 
    3.0137 	   20.9030 	   23.0000 	   16.0000 	   13.8335 
    2.8763 	   20.9200 	   23.0000 	   16.0000 	   13.8675 
    3.0289 	   20.9380 	   23.0000 	   16.0000 	   13.9035 
    2.8458 	   20.9560 	   23.0000 	   16.0000 	   13.9395 
    2.6780 	   20.9735 	   23.0000 	   16.0000 	   13.9745 
    2.8611 	   20.9920 	   23.0000 	   16.0000 	   14.0115 
    2.9068 	   21.0090 	   23.0000 	   16.0000 	   14.0455 
    2.9831 	   21.0270 	   23.0000 	   16.0000 	   14.0815 
    3.0137 	   21.0460 	   23.0000 	   16.0000 	   14.1195 
    2.9526 	   21.0635 	   23.0000 	   16.0000 	   14.1545 
    2.9831 	   21.0810 	   23.0000 	   16.0000 	   14.1895 
    2.8000 	   21.0990 	   23.0000 	   16.0000 	   14.2255 
    3.0137 	   21.1170 	   23.0000 	   16.0000 	   14.2615 
    2.9679 	   21.1355 	   23.0000 	   16.0000 	   14.2985 
    2.8916 	   21.1540 	   23.0000 	   16.0000 	   14.3355 
    2.9374 	   21.1725 	   23.0000 	   16.0000 	   14.3725 
    2.9068 	   21.1905 	   23.0000 	   16.0000 	   14.4085 
    2.8458 	   21.2080 	   23.0000 	   16.0000 	   14.4435 
    2.8305 	   21.2265 	   23.0000 	   16.0000 	   14.4805 
    2.9831 	   21.2445 	   23.0000 	   16.0000 	   14.5165 
    3.1357 	   21.2625 	   23.0000 	   16.0000 	   14.5525 
    2.9831 	   21.2800 	   23.0000 	   16.0000 	   14.5875 
    2.9831 	   21.2995 	   23.0000 	   16.0000 	   14.6265 
    2.9526 	   21.3180 	   23.0000 	   16.0000 	   14.6635 
    2.9221 	   21.3360 	   23.0000 	   16.0000 	   14.6995 
    2.9831 	   21.3535 	   23.0000 	   16.0000 	   14.7345 
    2.9984 	   21.3715 	   23.0000 	   16.0000 	   14.7705 
    3.0137 	   21.3895 	   23.0000 	   16.0000 	   14.8065 
    3.0594 	   21.4070 	   23.0000 	   16.0000 	   14.8415 
    3.1357 	   21.4250 	   23.0000 	   16.0000 	   14.8775 
    2.9068 	   21.4430 	   23.0000 	   16.0000 	   14.9135 
    3.0747 	   21.4605 	   23.0000 	   16.0000 	   14.9485 
    2.9984 	   21.4780 	   23.0000 	   16.0000 	   14.9835 
    2.9526 	   21.4955 	   23.0000 	   16.0000 	   15.0185 
    2.9068 	   21.5135 	   23.0000 	   16.0000 	   15.0545 
    3.0747 	   21.5315 	   23.0000 	   16.0000 	   15.0905 
    3.0747 	   21.5520 	   23.0000 	   16.0000 	   15.1315 
    3.0442 	   21.5695 	   23.0000 	   16.0000 	   15.1665 
    3.0747 	   21.5860 	   23.0000 	   16.0000 	   15.1996 
    2.9221 	   21.6015 	   23.0000 	   16.0000 	   15.2306 
    2.9831 	   21.6180 	   23.0000 	   16.0000 	   15.2636 
    3.1815 	   21.6355 	   23.0000 	   16.0000 	   15.2986 
    2.7695 	   21.6530 	   23.0000 	   16.0000 	   15.3336 
    2.8000 	   21.6705 	   23.0000 	   16.0000 	   15.3686 
    3.0289 	   21.6870 	   23.0000 	   16.0000 	   15.4016 
    2.9526 	   21.7040 	   23.0000 	   16.0000 	   15.4356 
    2.9374 	   21.7220 	   23.0000 	   16.0000 	   15.4716 
    3.1052 	   21.7395 	   23.0000 	   16.0000 	   15.5066 
    3.0289 	   21.7570 	   23.0000 	   16.0000 	   15.5416 
    2.9526 	   21.7755 	   23.0000 	   16.0000 	   15.5786 
    3.0137 	   21.7935 	   23.0000 	   16.0000 	   15.6146 
    2.9679 	   21.8155 	   23.0000 	   16.0000 	   15.6586 
    2.8153 	   21.8340 	   23.0000 	   16.0000 	   15.6956 
    2.9831 	   21.8530 	   23.0000 	   16.0000 	   15.7336 
    2.9984 	   21.8715 	   23.0000 	   16.0000 	   15.7706 
    2.9374 	   21.8895 	   23.0000 	   16.0000 	   15.8066 
    3.0442 	   21.9075 	   23.0000 	   16.0000 	   15.8426 
    3.2731 	   21.9250 	   23.0000 	   16.0000 	   15.8776 
    2.9831 	   21.9450 	   23.0000 	   16.0000 	   15.9176 
    2.9831 	   21.9645 	   23.0000 	   16.0000 	   15.9566 
    3.0900 	   21.9830 	   23.0000 	   16.0000 	   15.9936 
    2.9831 	   21.9995 	   23.0000 	   16.0000 	   16.0266 
    2.9984 	   22.0180 	   23.0000 	   16.0000 	   16.0636 
    3.1357 	   22.0360 	   23.0000 	   16.0000 	   16.0996 
    3.2120 	   22.0550 	   23.0000 	   16.0000 	   16.1376 
    3.1510 	   22.0715 	   23.0000 	   16.0000 	   16.1706 
    3.0594 	   22.0870 	   23.0000 	   16.0000 	   16.2016 
    3.1968 	   22.1030 	   23.0000 	   16.0000 	   16.2336 
    2.7848 	   22.1195 	   23.0000 	   16.0000 	   16.2666 
    3.0442 	   22.1375 	   23.0000 	   16.0000 	   16.3026 
    2.9831 	   22.1555 	   23.0000 	   16.0000 	   16.3386 
    3.0289 	   22.1740 	   23.0000 	   16.0000 	   16.3756 
    3.0900 	   22.1915 	   23.0000 	   16.0000 	   16.4106 
    3.0289 	   22.2095 	   23.0000 	   16.0000 	   16.4466 
    2.9984 	   22.2270 	   23.0000 	   16.0000 	   16.4816 
    2.9831 	   22.2445 	   23.0000 	   16.0000 	   16.5166 
    3.0747 	   22.2630 	   23.0000 	   16.0000 	   16.5536 
    3.0442 	   22.2810 	   23.0000 	   16.0000 	   16.5896 
    3.0442 	   22.2995 	   23.0000 	   16.0000 	   16.6266 
    3.1205 	   22.3175 	   23.0000 	   16.0000 	   16.6626 
    3.1815 	   22.3360 	   23.0000 	   16.0000 	   16.6996 
    3.0137 	   22.3535 	   23.0000 	   16.0000 	   16.7346 
    3.0747 	   22.3715 	   23.0000 	   16.0000 	   16.7706 
    3.0747 	   22.3895 	   23.0000 	   16.0000 	   16.8066 
    3.0594 	   22.4065 	   23.0000 	   16.0000 	   16.8406 
    3.0900 	   22.4250 	   23.0000 	   16.0000 	   16.8776 
    3.0900 	   22.4430 	   23.0000 	   16.0000 	   16.9136 
    3.0442 	   22.4615 	   23.0000 	   16.0000 	   16.9507 
    3.1968 	   22.4800 	   23.0000 	   16.0000 	   16.9877 
    3.0137 	   22.4980 	   23.0000 	   16.0000 	   17.0237 
    3.1357 	   22.5160 	   23.0000 	   16.0000 	   17.0597 
    3.1052 	   22.5335 	   23.0000 	   16.0000 	   17.0947 
    3.0900 	   22.5535 	   23.0000 	   16.0000 	   17.1347 
    2.8763 	   22.5720 	   23.0000 	   16.0000 	   17.1717 
    3.0442 	   22.5905 	   23.0000 	   16.0000 	   17.2087 
    3.1052 	   22.6090 	   23.0000 	   16.0000 	   17.2457 
    3.0594 	   22.6270 	   23.0000 	   16.0000 	   17.2817 
    3.1205 	   22.6450 	   23.0000 	   16.0000 	   17.3177 
    3.0594 	   22.6640 	   23.0000 	   16.0000 	   17.3557 
    3.0747 	   22.6815 	   23.0000 	   16.0000 	   17.3907 
    3.1662 	   22.6995 	   23.0000 	   16.0000 	   17.4267 
    3.1052 	   22.7175 	   23.0000 	   16.0000 	   17.4627 
    3.0900 	   22.7355 	   23.0000 	   16.0000 	   17.4987 
    3.0594 	   22.7530 	   23.0000 	   16.0000 	   17.5337 
    3.1968 	   22.7715 	   23.0000 	   16.0000 	   17.5707 
    3.1815 	   22.7890 	   23.0000 	   16.0000 	   17.6057 
    3.0747 	   22.8155 	   23.0000 	   16.0000 	   17.6587 
    3.0289 	   22.8310 	   23.0000 	   16.0000 	   17.6897 
    3.0594 	   22.8490 	   23.0000 	   16.0000 	   17.7257 
    2.8611 	   22.8680 	   23.0000 	   16.0000 	   17.7637 
    3.0442 	   22.8855 	   23.0000 	   16.0000 	   17.7987 
    3.0289 	   22.9040 	   23.0000 	   16.0000 	   17.8357 
    3.2425 	   22.9225 	   23.0000 	   16.0000 	   17.8727 
    3.1052 	   22.9405 	   23.0000 	   16.0000 	   17.9087 
    3.0900 	   22.9580 	   23.0000 	   16.0000 	   17.9437 
    3.1357 	   22.9760 	   23.0000 	   16.0000 	   17.9797 
    3.1357 	   22.9955 	   23.0000 	   16.0000 	   18.0187 
    3.1510 	   23.0130 	   23.0000 	   16.0000 	   18.0537 
    3.1815 	   23.0315 	   23.0000 	   16.0000 	   18.0907 
    3.1968 	   23.0520 	   23.0000 	   16.0000 	   18.1317 
    3.2120 	   23.0700 	   23.0000 	   16.0000 	   18.1677 
    3.2883 	   23.0885 	   23.0000 	   16.0000 	   18.2047 
    3.1052 	   23.1070 	   23.0000 	   16.0000 	   18.2417 
    3.2120 	   23.1255 	   23.0000 	   16.0000 	   18.2787 
    3.1968 	   23.1430 	   23.0000 	   16.0000 	   18.3137 
    3.0900 	   23.1610 	   23.0000 	   16.0000 	   18.3497 
    3.2578 	   23.1785 	   23.0000 	   16.0000 	   18.3847 
    3.1662 	   23.1970 	   23.0000 	   16.0000 	   18.4217 
    2.9984 	   23.2150 	   23.0000 	   16.0000 	   18.4577 
    3.1052 	   23.2330 	   23.0000 	   16.0000 	   18.4937 
    3.1662 	   23.2510 	   23.0000 	   16.0000 	   18.5297 
    2.9831 	   23.2695 	   23.0000 	   16.0000 	   18.5667 
    3.3036 	   23.2875 	   23.0000 	   16.0000 	   18.6027 
    3.2883 	   23.3065 	   23.0000 	   16.0000 	   18.6407 
    3.1968 	   23.3265 	   23.0000 	   16.0000 	   18.6807 
    3.2425 	   23.3440 	   23.0000 	   16.0000 	   18.7158 
    3.2883 	   23.3625 	   23.0000 	   16.0000 	   18.7528 
    3.2273 	   23.3805 	   23.0000 	   16.0000 	   18.7888 
    3.1052 	   23.3980 	   23.0000 	   16.0000 	   18.8238 
    3.2120 	   23.4160 	   23.0000 	   16.0000 	   18.8598 
    3.3341 	   23.4345 	   23.0000 	   16.0000 	   18.8968 
    3.2120 	   23.4530 	   23.0000 	   16.0000 	   18.9338 
    3.1357 	   23.4715 	   23.0000 	   16.0000 	   18.9708 
    2.9679 	   23.4890 	   23.0000 	   16.0000 	   19.0058 
    3.2578 	   23.5075 	   23.0000 	   16.0000 	   19.0428 
    3.1968 	   23.5260 	   23.0000 	   16.0000 	   19.0798 
    3.1815 	   23.5465 	   23.0000 	   16.0000 	   19.1208 
    3.2273 	   23.5650 	   23.0000 	   16.0000 	   19.1578 
    3.1815 	   23.5845 	   23.0000 	   16.0000 	   19.1968 
    3.1968 	   23.6030 	   23.0000 	   16.0000 	   19.2338 
    3.3188 	   23.6200 	   23.0000 	   16.0000 	   19.2678 
    3.1052 	   23.6380 	   23.0000 	   16.0000 	   19.3038 
    3.3341 	   23.6565 	   23.0000 	   16.0000 	   19.3408 
    3.1968 	   23.6750 	   23.0000 	   16.0000 	   19.3778 
    3.2120 	   23.6930 	   23.0000 	   16.0000 	   19.4138 
    3.4409 	   23.7115 	   23.0000 	   16.0000 	   19.4508 
    3.2578 	   23.7305 	   23.0000 	   16.0000 	   19.4888 
    3.2120 	   23.7505 	   23.0000 	   16.0000 	   19.5288 
    3.3036 	   23.7685 	   23.0000 	   16.0000 	   19.5648 
    3.3646 	   23.7870 	   23.0000 	   16.0000 	   19.6018 
    3.3036 	   23.8050 	   23.0000 	   16.0000 	   19.6378 
    3.2578 	   23.8230 	   23.0000 	   16.0000 	   19.6728 
    3.3799 	   23.8410 	   23.0000 	   16.0000 	   19.7088 
    3.4562 	   23.8595 	   23.0000 	   16.0000 	   19.7458 
    3.2425 	   23.8775 	   23.0000 	   16.0000 	   19.7818 
    3.1510 	   23.8960 	   23.0000 	   16.0000 	   19.8188 
    3.1662 	   23.9145 	   23.0000 	   16.0000 	   19.8558 
    3.0289 	   23.9330 	   23.0000 	   16.0000 	   19.8928 
    3.2425 	   23.9515 	   23.0000 	   16.0000 	   19.9298 
    3.1968 	   23.9705 	   23.0000 	   16.0000 	   19.9678 
    3.2883 	   23.9895 	   23.0000 	   16.0000 	   20.0058 
    3.3188 	   24.0080 	   23.0000 	   16.0000 	   20.0428 
    3.3341 	   24.0260 	   23.0000 	   16.0000 	   20.0788 
    3.2425 	   24.0465 	   23.0000 	   16.0000 	   20.1198 
    3.3494 	   24.0640 	   23.0000 	   16.0000 	   20.1548 
    3.3036 	   24.0820 	   23.0000 	   16.0000 	   20.1908 
    3.3799 	   24.1000 	   23.0000 	   16.0000 	   20.2268 
    3.2578 	   24.1185 	   23.0000 	   16.0000 	   20.2638 
    3.2120 	   24.1375 	   23.0000 	   16.0000 	   20.3018 
    3.2273 	   24.1545 	   23.0000 	   16.0000 	   20.3358 
    3.3036 	   24.1725 	   23.0000 	   16.0000 	   20.3718 
    3.3036 	   24.1910 	   23.0000 	   16.0000 	   20.4088 
    3.3036 	   24.2075 	   23.0000 	   16.0000 	   20.4419 
    3.2731 	   24.2235 	   23.0000 	   16.0000 	   20.4739 
    3.3799 	   24.2405 	   23.0000 	   16.0000 	   20.5079 
    3.3646 	   24.2575 	   23.0000 	   16.0000 	   20.5419 
    3.2425 	   24.2740 	   23.0000 	   16.0000 	   20.5749 
    3.3036 	   24.2910 	   23.0000 	   16.0000 	   20.6089 
    3.4562 	   24.3095 	   23.0000 	   16.0000 	   20.6459 
    3.3951 	   24.3275 	   23.0000 	   16.0000 	   20.6819 
    3.2731 	   24.3445 	   23.0000 	   16.0000 	   20.7159 
    3.2731 	   24.3640 	   23.0000 	   16.0000 	   20.7549 
    3.1662 	   24.3830 	   23.0000 	   16.0000 	   20.7929 
    3.1815 	   24.4005 	   23.0000 	   16.0000 	   20.8279 
    3.2120 	   24.4190 	   23.0000 	   16.0000 	   20.8649 
    3.2731 	   24.4370 	   23.0000 	   16.0000 	   20.9009 
    3.2731 	   24.4550 	   23.0000 	   16.0000 	   20.9369 
    3.2883 	   24.4740 	   23.0000 	   16.0000 	   20.9749 
    3.2883 	   24.4930 	   23.0000 	   16.0000 	   21.0129 
    3.4867 	   24.5115 	   23.0000 	   16.0000 	   21.0499 
    3.2273 	   24.5315 	   23.0000 	   16.0000 	   21.0899 
    3.4104 	   24.5530 	   23.0000 	   16.0000 	   21.1329 
    3.3036 	   24.5720 	   23.0000 	   16.0000 	   21.1709 
    3.3188 	   24.5900 	   23.0000 	   16.0000 	   21.2069 
    3.3188 	   24.6080 	   23.0000 	   16.0000 	   21.2429 
    3.3036 	   24.6250 	   23.0000 	   16.0000 	   21.2769 
    3.2273 	   24.6430 	   23.0000 	   16.0000 	   21.3129 
    3.3494 	   24.6620 	   23.0000 	   16.0000 	   21.3509 
    3.5325 	   24.6795 	   23.0000 	   16.0000 	   21.3859 
    3.3799 	   24.6980 	   23.0000 	   16.0000 	   21.4229 
    3.1052 	   24.7180 	   23.0000 	   16.0000 	   21.4629 
    3.4714 	   24.7365 	   23.0000 	   16.0000 	   21.4999 
    3.0747 	   24.7550 	   23.0000 	   16.0000 	   21.5369 
    3.4257 	   24.7735 	   23.0000 	   16.0000 	   21.5739 
    3.2120 	   24.7915 	   23.0000 	   16.0000 	   21.6099 
    3.4104 	   24.8160 	   23.0000 	   16.0000 	   21.6589 
    3.3036 	   24.8340 	   23.0000 	   16.0000 	   21.6949 
    3.2731 	   24.8530 	   23.0000 	   16.0000 	   21.7329 
    3.5019 	   24.8715 	   23.0000 	   16.0000 	   21.7699 
    3.3799 	   24.8910 	   23.0000 	   16.0000 	   21.8089 
    3.4257 	   24.9090 	   23.0000 	   16.0000 	   21.8449 
    3.4257 	   24.9275 	   23.0000 	   16.0000 	   21.8819 
    3.5019 	   24.9455 	   23.0000 	   16.0000 	   21.9179 
    3.4104 	   24.9635 	   23.0000 	   16.0000 	   21.9539 
    3.3646 	   24.9815 	   23.0000 	   16.0000 	   21.9899 
    3.5477 	   25.0000 	   23.0000 	   16.0000 	   22.0269 
    3.4257 	   25.0185 	   23.0000 	   16.0000 	   22.0639 
    3.3494 	   25.0395 	   23.0000 	   16.0000 	   22.1059 
    3.4562 	   25.0575 	   23.0000 	   16.0000 	   22.1419 
    3.5477 	   25.0765 	   23.0000 	   16.0000 	   22.1800 
    3.1662 	   25.0950 	   23.0000 	   16.0000 	   22.2170 
    3.3188 	   25.1130 	   23.0000 	   16.0000 	   22.2530 
    3.3799 	   25.1315 	   23.0000 	   16.0000 	   22.2900 
    3.4257 	   25.1505 	   23.0000 	   16.0000 	   22.3280 
    3.2731 	   25.1675 	   23.0000 	   16.0000 	   22.3620 
    3.0442 	   25.1855 	   23.0000 	   16.0000 	   22.3980 
    3.2883 	   25.2035 	   23.0000 	   16.0000 	   22.4340 
    3.4409 	   25.2230 	   23.0000 	   16.0000 	   22.4730 
    3.5019 	   25.2415 	   23.0000 	   16.0000 	   22.5100 
    3.3799 	   25.2605 	   23.0000 	   16.0000 	   22.5480 
    3.3951 	   25.2785 	   23.0000 	   16.0000 	   22.5840 
    3.3494 	   25.2965 	   23.0000 	   16.0000 	   22.6200 
    3.5019 	   25.3150 	   23.0000 	   16.0000 	   22.6570 
    3.3951 	   25.3340 	   23.0000 	   16.0000 	   22.6950 
    3.4409 	   25.3525 	   23.0000 	   16.0000 	   22.7320 
    3.4257 	   25.3710 	   23.0000 	   16.0000 	   22.7690 
    3.3494 	   25.3900 	   23.0000 	   16.0000 	   22.8070 
    3.3646 	   25.4075 	   23.0000 	   16.0000 	   22.8420 
    3.3494 	   25.4260 	   23.0000 	   16.0000 	   22.8790 
    3.4867 	   25.4440 	   23.0000 	   16.0000 	   22.9150 
    3.3036 	   25.4640 	   23.0000 	   16.0000 	   22.9550 
    3.4257 	   25.4820 	   23.0000 	   16.0000 	   22.9910 
    3.4714 	   25.5010 	   23.0000 	   16.0000 	   23.0290 
    3.4714 	   25.5185 	   23.0000 	   16.0000 	   23.0640 
    3.3951 	   25.5395 	   23.0000 	   16.0000 	   23.1060 
    3.5172 	   25.5580 	   23.0000 	   16.0000 	   23.1430 
    3.5019 	   25.5755 	   23.0000 	   16.0000 	   23.1780 
    3.4867 	   25.5935 	   23.0000 	   16.0000 	   23.2140 
    3.4714 	   25.6115 	   23.0000 	   16.0000 	   23.2500 
    3.4562 	   25.6300 	   23.0000 	   16.0000 	   23.2870 
    3.5019 	   25.6495 	   23.0000 	   16.0000 	   23.3260 
    3.5325 	   25.6670 	   23.0000 	   16.0000 	   23.3610 
    3.1662 	   25.6850 	   23.0000 	   16.0000 	   23.3970 
    3.5477 	   25.7030 	   23.0000 	   16.0000 	   23.4330 
    3.5019 	   25.7205 	   23.0000 	   16.0000 	   23.4680 
    3.4867 	   25.7390 	   23.0000 	   16.0000 	   23.5050 
    3.5630 	   25.7585 	   23.0000 	   16.0000 	   23.5440 
    3.5782 	   25.7775 	   23.0000 	   16.0000 	   23.5820 
    3.5019 	   25.7950 	   23.0000 	   16.0000 	   23.6170 
    3.3799 	   25.8155 	   23.0000 	   16.0000 	   23.6580 
    3.4257 	   25.8360 	   23.0000 	   16.0000 	   23.6990 
    3.5019 	   25.8550 	   23.0000 	   16.0000 	   23.7370 
    3.4867 	   25.8745 	   23.0000 	   16.0000 	   23.7760 
    3.4867 	   25.8930 	   23.0000 	   16.0000 	   23.8130 
    3.5325 	   25.9125 	   23.0000 	   16.0000 	   23.8520 
    3.5019 	   25.9310 	   23.0000 	   16.0000 	   23.8890 
    3.4867 	   25.9490 	   23.0000 	   16.0000 	   23.9250 
    3.5019 	   25.9685 	   23.0000 	   16.0000 	   23.9641 
    3.4867 	   25.9870 	   23.0000 	   16.0000 	   24.0011 
    3.5782 	   26.0050 	   23.0000 	   16.0000 	   24.0371 
    3.4257 	   26.0235 	   23.0000 	   16.0000 	   24.0741 
    3.4867 	   26.0445 	   23.0000 	   16.0000 	   24.1161 
    3.6240 	   26.0630 	   23.0000 	   16.0000 	   24.1531 
    3.5630 	   26.0815 	   23.0000 	   16.0000 	   24.1901 
    3.6240 	   26.1020 	   23.0000 	   16.0000 	   24.2311 
    3.4562 	   26.1190 	   23.0000 	   16.0000 	   24.2651 
    3.5019 	   26.1375 	   23.0000 	   16.0000 	   24.3021 
    3.4867 	   26.1560 	   23.0000 	   16.0000 	   24.3391 
    3.4867 	   26.1750 	   23.0000 	   16.0000 	   24.3771 
    3.5782 	   26.1940 	   23.0000 	   16.0000 	   24.4151 
    3.4562 	   26.2120 	   23.0000 	   16.0000 	   24.4511 
    3.1815 	   26.2310 	   23.0000 	   16.0000 	   24.4891 
    3.4714 	   26.2505 	   23.0000 	   16.0000 	   24.5281 
    3.5172 	   26.2685 	   23.0000 	   16.0000 	   24.5641 
    3.5325 	   26.2855 	   23.0000 	   16.0000 	   24.5981 
    3.4714 	   26.3035 	   23.0000 	   16.0000 	   24.6341 
    3.3799 	   26.3225 	   23.0000 	   16.0000 	   24.6721 
    3.5019 	   26.3400 	   23.0000 	   16.0000 	   24.7071 
    3.6088 	   26.3560 	   23.0000 	   16.0000 	   24.7391 
    3.3951 	   26.3740 	   23.0000 	   16.0000 	   24.7751 
    3.5172 	   26.3925 	   23.0000 	   16.0000 	   24.8121 
    3.5325 	   26.4105 	   23.0000 	   16.0000 	   24.8481 
    3.6240 	   26.4285 	   23.0000 	   16.0000 	   24.8841 
    3.6393 	   26.4470 	   23.0000 	   16.0000 	   24.9211 
    3.6088 	   26.4660 	   23.0000 	   16.0000 	   24.9591 
    3.4409 	   26.4840 	   23.0000 	   16.0000 	   24.9951 
    3.5935 	   26.5020 	   23.0000 	   16.0000 	   25.0311 
    3.5477 	   26.5185 	   23.0000 	   16.0000 	   25.0641 
    3.5782 	   26.5365 	   23.0000 	   16.0000 	   25.1001 
    3.4867 	   26.5550 	   23.0000 	   16.0000 	   25.1371 
    3.6088 	   26.5735 	   23.0000 	   16.0000 	   25.1741 
    3.7308 	   26.5915 	   23.0000 	   16.0000 	   25.2101 
    3.5325 	   26.6095 	   23.0000 	   16.0000 	   25.2461 
    3.5477 	   26.6280 	   23.0000 	   16.0000 	   25.2831 
    3.4867 	   26.6440 	   23.0000 	   16.0000 	   25.3151 
    3.5782 	   26.6620 	   23.0000 	   16.0000 	   25.3511 
    3.5935 	   26.6805 	   23.0000 	   16.0000 	   25.3881 
    3.5630 	   26.6990 	   23.0000 	   16.0000 	   25.4241 
    3.6545 	   26.7170 	   23.0000 	   16.0000 	   25.4611 
    3.6088 	   26.7355 	   23.0000 	   16.0000 	   25.4981 
    3.5782 	   26.7535 	   23.0000 	   16.0000 	   25.5341 
    3.7156 	   26.7725 	   23.0000 	   16.0000 	   25.5721 
    3.7613 	   26.7915 	   23.0000 	   16.0000 	   25.6101 
    3.6851 	   26.8155 	   23.0000 	   16.0000 	   25.6581 
    3.7156 	   26.8355 	   23.0000 	   16.0000 	   25.6982 
    3.5477 	   26.8540 	   23.0000 	   16.0000 	   25.7352 
    3.4257 	   26.8735 	   23.0000 	   16.0000 	   25.7742 
    3.5782 	   26.8925 	   23.0000 	   16.0000 	   25.8122 
    3.5172 	   26.9105 	   23.0000 	   16.0000 	   25.8482 
    3.5325 	   26.9285 	   23.0000 	   16.0000 	   25.8842 
    3.5019 	   26.9465 	   23.0000 	   16.0000 	   25.9202 
    3.8071 	   26.9645 	   23.0000 	   16.0000 	   25.9562 
    3.6851 	   26.9835 	   23.0000 	   16.0000 	   25.9942 
    3.6698 	   27.0035 	   23.0000 	   16.0000 	   26.0342 
    3.6240 	   27.0215 	   23.0000 	   16.0000 	   26.0702 
    3.6698 	   27.0425 	   23.0000 	   16.0000 	   26.1122 
    3.5325 	   27.0620 	   23.0000 	   16.0000 	   26.1512 
    3.5935 	   27.0795 	   23.0000 	   16.0000 	   26.1862 
    3.6240 	   27.0995 	   23.0000 	   16.0000 	   26.2262 
    3.5782 	   27.1175 	   23.0000 	   16.0000 	   26.2622 
    3.6851 	   27.1360 	   23.0000 	   16.0000 	   26.2992 
    3.5935 	   27.1540 	   23.0000 	   16.0000 	   26.3352 
    3.6851 	   27.1725 	   23.0000 	   16.0000 	   26.3722 
    3.6240 	   27.1920 	   23.0000 	   16.0000 	   26.4112 
    3.5782 	   27.2105 	   23.0000 	   16.0000 	   26.4482 
    3.6698 	   27.2295 	   23.0000 	   16.0000 	   26.4862 
    3.6851 	   27.2480 	   23.0000 	   16.0000 	   26.5232 
    3.5477 	   27.2665 	   23.0000 	   16.0000 	   26.5602 
    3.5477 	   27.2835 	   23.0000 	   16.0000 	   26.5942 
    3.5325 	   27.3030 	   23.0000 	   16.0000 	   26.6332 
    3.7003 	   27.3205 	   23.0000 	   16.0000 	   26.6682 
    3.8071 	   27.3385 	   23.0000 	   16.0000 	   26.7042 
    3.7613 	   27.3570 	   23.0000 	   16.0000 	   26.7412 
    3.6088 	   27.3750 	   23.0000 	   16.0000 	   26.7772 
    3.7766 	   27.3925 	   23.0000 	   16.0000 	   26.8122 
    3.6698 	   27.4110 	   23.0000 	   16.0000 	   26.8492 
    3.8682 	   27.4285 	   23.0000 	   16.0000 	   26.8842 
    3.4867 	   27.4470 	   23.0000 	   16.0000 	   26.9212 
    3.7308 	   27.4655 	   23.0000 	   16.0000 	   26.9582 
    3.5935 	   27.4845 	   23.0000 	   16.0000 	   26.9962 
    3.7308 	   27.5030 	   23.0000 	   16.0000 	   27.0332 
    3.7919 	   27.5210 	   23.0000 	   16.0000 	   27.0692 
    3.7461 	   27.5415 	   23.0000 	   16.0000 	   27.1102 
    3.6851 	   27.5610 	   23.0000 	   16.0000 	   27.1492 
    3.6698 	   27.5795 	   23.0000 	   16.0000 	   27.1862 
    3.7003 	   27.5990 	   23.0000 	   16.0000 	   27.2252 
    3.6698 	   27.6180 	   23.0000 	   16.0000 	   27.2632 
    3.7613 	   27.6380 	   23.0000 	   16.0000 	   27.3032 
    3.5325 	   27.6560 	   23.0000 	   16.0000 	   27.3392 
    3.5782 	   27.6745 	   23.0000 	   16.0000 	   27.3762 
    3.6088 	   27.6930 	   23.0000 	   16.0000 	   27.4132 
    3.6851 	   27.7110 	   23.0000 	   16.0000 	   27.4493 
    3.7156 	   27.7295 	   23.0000 	   16.0000 	   27.4863 
    3.8224 	   27.7475 	   23.0000 	   16.0000 	   27.5223 
    3.6088 	   27.7665 	   23.0000 	   16.0000 	   27.5603 
    3.6698 	   27.7840 	   23.0000 	   16.0000 	   27.5953 
    3.8071 	   27.8035 	   23.0000 	   16.0000 	   27.6343 
    3.7613 	   27.8215 	   23.0000 	   16.0000 	   27.6703 
    3.7613 	   27.8390 	   23.0000 	   16.0000 	   27.7053 
    3.7156 	   27.8575 	   23.0000 	   16.0000 	   27.7423 
    3.6393 	   27.8765 	   23.0000 	   16.0000 	   27.7803 
    3.7156 	   27.8950 	   23.0000 	   16.0000 	   27.8173 
    3.6240 	   27.9135 	   23.0000 	   16.0000 	   27.8543 
    3.7308 	   27.9320 	   23.0000 	   16.0000 	   27.8913 
    3.7613 	   27.9510 	   23.0000 	   16.0000 	   27.9293 
    3.6393 	   27.9705 	   23.0000 	   16.0000 	   27.9683 
    3.5782 	   27.9885 	   23.0000 	   16.0000 	   28.0043 
    3.7919 	   28.0065 	   23.0000 	   16.0000 	   28.0403 
    3.6698 	   28.0240 	   23.0000 	   16.0000 	   28.0753 
    3.8071 	   28.0450 	   23.0000 	   16.0000 	   28.1173 
    3.7003 	   28.0635 	   23.0000 	   16.0000 	   28.1543 
    3.7613 	   28.0830 	   23.0000 	   16.0000 	   28.1933 
    3.6240 	   28.1015 	   23.0000 	   16.0000 	   28.2303 
    3.6088 	   28.1200 	   23.0000 	   16.0000 	   28.2673 
    3.7308 	   28.1380 	   23.0000 	   16.0000 	   28.3033 
    3.6698 	   28.1575 	   23.0000 	   16.0000 	   28.3423 
    3.7461 	   28.1755 	   23.0000 	   16.0000 	   28.3783 
    3.8529 	   28.1950 	   23.0000 	   16.0000 	   28.4173 
    3.7766 	   28.2135 	   23.0000 	   16.0000 	   28.4543 
    3.6393 	   28.2325 	   23.0000 	   16.0000 	   28.4923 
    3.6545 	   28.2505 	   23.0000 	   16.0000 	   28.5283 
    3.7613 	   28.2685 	   23.0000 	   16.0000 	   28.5643 
    3.7461 	   28.2870 	   23.0000 	   16.0000 	   28.6013 
    3.7461 	   28.3060 	   23.0000 	   16.0000 	   28.6393 
    3.6698 	   28.3250 	   23.0000 	   16.0000 	   28.6773 
    3.7919 	   28.3435 	   23.0000 	   16.0000 	   28.7143 
    3.8071 	   28.3625 	   23.0000 	   16.0000 	   28.7523 
    3.8529 	   28.3815 	   23.0000 	   16.0000 	   28.7903 
    3.8529 	   28.4000 	   23.0000 	   16.0000 	   28.8273 
    3.7613 	   28.4185 	   23.0000 	   16.0000 	   28.8643 
    3.7919 	   28.4375 	   23.0000 	   16.0000 	   28.9023 
    3.8529 	   28.4570 	   23.0000 	   16.0000 	   28.9413 
    3.8071 	   28.4755 	   23.0000 	   16.0000 	   28.9783 
    3.7003 	   28.4940 	   23.0000 	   16.0000 	   29.0153 
    3.4562 	   28.5135 	   23.0000 	   16.0000 	   29.0543 
    3.6240 	   28.5325 	   23.0000 	   16.0000 	   29.0923 
    3.7919 	   28.5525 	   23.0000 	   16.0000 	   29.1323 
    3.4714 	   28.5715 	   23.0000 	   16.0000 	   29.1703 
    3.7613 	   28.5905 	   23.0000 	   16.0000 	   29.2084 
    3.8682 	   28.6085 	   23.0000 	   16.0000 	   29.2444 
    3.6393 	   28.6270 	   23.0000 	   16.0000 	   29.2814 
    3.8224 	   28.6450 	   23.0000 	   16.0000 	   29.3174 
    3.7919 	   28.6640 	   23.0000 	   16.0000 	   29.3554 
    3.6698 	   28.6835 	   23.0000 	   16.0000 	   29.3944 
    3.7461 	   28.7025 	   23.0000 	   16.0000 	   29.4324 
    3.7156 	   28.7220 	   23.0000 	   16.0000 	   29.4714 
    3.8224 	   28.7400 	   23.0000 	   16.0000 	   29.5074 
    3.8376 	   28.7580 	   23.0000 	   16.0000 	   29.5434 
    4.0208 	   28.7775 	   23.0000 	   16.0000 	   29.5824 
    3.6698 	   28.7950 	   23.0000 	   16.0000 	   29.6174 
    3.8376 	   28.8155 	   23.0000 	   16.0000 	   29.6584 
    3.8071 	   28.8335 	   23.0000 	   16.0000 	   29.6944 
    3.9902 	   28.8515 	   23.0000 	   16.0000 	   29.7304 
    4.0055 	   28.8695 	   23.0000 	   16.0000 	   29.7664 
    3.5935 	   28.8880 	   23.0000 	   16.0000 	   29.8034 
    3.8987 	   28.9070 	   23.0000 	   16.0000 	   29.8414 
    3.7919 	   28.9260 	   23.0000 	   16.0000 	   29.8794 
    3.8834 	   28.9450 	   23.0000 	   16.0000 	   29.9174 
    3.8529 	   28.9640 	   23.0000 	   16.0000 	   29.9554 
    3.9292 	   28.9830 	   23.0000 	   16.0000 	   29.9934 
    3.8834 	   29.0010 	   23.0000 	   16.0000 	   30.0294 
    3.9292 	   29.0205 	   23.0000 	   16.0000 	   30.0684 
    3.9139 	   29.0395 	   23.0000 	   16.0000 	   30.1064 
    3.9597 	   29.0585 	   23.0000 	   16.0000 	   30.1444 
    3.9445 	   29.0770 	   23.0000 	   16.0000 	   30.1814 
    3.8834 	   29.0960 	   23.0000 	   16.0000 	   30.2194 
    3.8529 	   29.1155 	   23.0000 	   16.0000 	   30.2584 
    3.8376 	   29.1345 	   23.0000 	   16.0000 	   30.2964 
    3.8071 	   29.1525 	   23.0000 	   16.0000 	   30.3324 
    3.9597 	   29.1725 	   23.0000 	   16.0000 	   30.3724 
    3.8224 	   29.1905 	   23.0000 	   16.0000 	   30.4084 
    3.9597 	   29.2085 	   23.0000 	   16.0000 	   30.4444 
    3.8071 	   29.2255 	   23.0000 	   16.0000 	   30.4784 
    3.7919 	   29.2440 	   23.0000 	   16.0000 	   30.5154 
    3.9139 	   29.2630 	   23.0000 	   16.0000 	   30.5534 
    3.8529 	   29.2815 	   23.0000 	   16.0000 	   30.5904 
    3.9139 	   29.3015 	   23.0000 	   16.0000 	   30.6304 
    4.0208 	   29.3215 	   23.0000 	   16.0000 	   30.6704 
    3.8224 	   29.3405 	   23.0000 	   16.0000 	   30.7084 
    3.8834 	   29.3595 	   23.0000 	   16.0000 	   30.7464 
    3.9139 	   29.3780 	   23.0000 	   16.0000 	   30.7834 
    3.9597 	   29.3965 	   23.0000 	   16.0000 	   30.8204 
    4.0055 	   29.4150 	   23.0000 	   16.0000 	   30.8574 
    3.7156 	   29.4335 	   23.0000 	   16.0000 	   30.8944 
    3.8834 	   29.4515 	   23.0000 	   16.0000 	   30.9305 
    3.9292 	   29.4705 	   23.0000 	   16.0000 	   30.9685 
    3.8834 	   29.4890 	   23.0000 	   16.0000 	   31.0045 
    3.9292 	   29.5075 	   23.0000 	   16.0000 	   31.0425 
    3.9597 	   29.5280 	   23.0000 	   16.0000 	   31.0835 
    4.0208 	   29.5480 	   23.0000 	   16.0000 	   31.1235 
    3.7766 	   29.5665 	   23.0000 	   16.0000 	   31.1605 
    3.8682 	   29.5855 	   23.0000 	   16.0000 	   31.1985 
    3.6393 	   29.6045 	   23.0000 	   16.0000 	   31.2365 
    3.9139 	   29.6230 	   23.0000 	   16.0000 	   31.2725 
    3.9139 	   29.6405 	   23.0000 	   16.0000 	   31.3085 
    4.0970 	   29.6595 	   23.0000 	   16.0000 	   31.3465 
    3.9292 	   29.6780 	   23.0000 	   16.0000 	   31.3835 
    3.8834 	   29.6980 	   23.0000 	   16.0000 	   31.4235 
    4.0055 	   29.7165 	   23.0000 	   16.0000 	   31.4605 
    3.8987 	   29.7360 	   23.0000 	   16.0000 	   31.4995 
    3.8834 	   29.7550 	   23.0000 	   16.0000 	   31.5375 
    4.0055 	   29.7735 	   23.0000 	   16.0000 	   31.5745 
    3.9597 	   29.7915 	   23.0000 	   16.0000 	   31.6105 
    3.9292 	   29.8155 	   23.0000 	   16.0000 	   31.6585 
    3.7308 	   29.8355 	   23.0000 	   16.0000 	   31.6985 
    3.9292 	   29.8540 	   23.0000 	   16.0000 	   31.7355 
    3.9445 	   29.8715 	   23.0000 	   16.0000 	   31.7705 
    3.9597 	   29.8905 	   23.0000 	   16.0000 	   31.8085 
    4.0513 	   29.9085 	   23.0000 	   16.0000 	   31.8445 
    3.9292 	   29.9270 	   23.0000 	   16.0000 	   31.8815 
    3.8529 	   29.9465 	   23.0000 	   16.0000 	   31.9205 
    3.9445 	   29.9655 	   23.0000 	   16.0000 	   31.9585 
    4.0055 	   29.9845 	   23.0000 	   16.0000 	   31.9965 
    4.0360 	   30.0025 	   23.0000 	   16.0000 	   32.0325 
    3.6545 	   30.0210 	   23.0000 	   16.0000 	   32.0695 
    4.0818 	   30.0405 	   23.0000 	   16.0000 	   32.1085 
    3.9139 	   30.0595 	   23.0000 	   16.0000 	   32.1465 
    4.0208 	   30.0780 	   23.0000 	   16.0000 	   32.1835 
    4.0208 	   30.0985 	   23.0000 	   16.0000 	   32.2245 
    3.9750 	   30.1185 	   23.0000 	   16.0000 	   32.2645 
    3.9750 	   30.1380 	   23.0000 	   16.0000 	   32.3035 
    4.0665 	   30.1560 	   23.0000 	   16.0000 	   32.3395 
    3.8987 	   30.1750 	   23.0000 	   16.0000 	   32.3775 
    3.9445 	   30.1945 	   23.0000 	   16.0000 	   32.4165 
    3.9292 	   30.2140 	   23.0000 	   16.0000 	   32.4555 
    4.1428 	   30.2330 	   23.0000 	   16.0000 	   32.4935 
    4.0970 	   30.2510 	   23.0000 	   16.0000 	   32.5295 
    4.0208 	   30.2725 	   23.0000 	   16.0000 	   32.5725 
    4.0970 	   30.2905 	   23.0000 	   16.0000 	   32.6085 
    4.0818 	   30.3100 	   23.0000 	   16.0000 	   32.6475 
    3.9139 	   30.3290 	   23.0000 	   16.0000 	   32.6856 
    3.9292 	   30.3475 	   23.0000 	   16.0000 	   32.7226 
    3.9902 	   30.3665 	   23.0000 	   16.0000 	   32.7606 
    4.0818 	   30.3860 	   23.0000 	   16.0000 	   32.7996 
    3.9750 	   30.4045 	   23.0000 	   16.0000 	   32.8366 
    4.0360 	   30.4235 	   23.0000 	   16.0000 	   32.8746 
    4.0208 	   30.4420 	   23.0000 	   16.0000 	   32.9116 
    3.9139 	   30.4610 	   23.0000 	   16.0000 	   32.9496 
    3.9750 	   30.4800 	   23.0000 	   16.0000 	   32.9876 
    4.1123 	   30.4990 	   23.0000 	   16.0000 	   33.0256 
    4.0513 	   30.5190 	   23.0000 	   16.0000 	   33.0656 
    3.9902 	   30.5390 	   23.0000 	   16.0000 	   33.1056 
    4.1276 	   30.5580 	   23.0000 	   16.0000 	   33.1436 
    4.0055 	   30.5765 	   23.0000 	   16.0000 	   33.1806 
    4.0208 	   30.5955 	   23.0000 	   16.0000 	   33.2186 
    4.0665 	   30.6155 	   23.0000 	   16.0000 	   33.2586 
    3.9292 	   30.6345 	   23.0000 	   16.0000 	   33.2966 
    4.0360 	   30.6545 	   23.0000 	   16.0000 	   33.3366 
    3.9902 	   30.6735 	   23.0000 	   16.0000 	   33.3746 
    4.0208 	   30.6925 	   23.0000 	   16.0000 	   33.4126 
    4.0970 	   30.7115 	   23.0000 	   16.0000 	   33.4506 
    4.0055 	   30.7300 	   23.0000 	   16.0000 	   33.4876 
    4.1428 	   30.7500 	   23.0000 	   16.0000 	   33.5276 
    4.2344 	   30.7690 	   23.0000 	   16.0000 	   33.5656 
    3.9750 	   30.7885 	   23.0000 	   16.0000 	   33.6046 
    4.0818 	   30.8155 	   23.0000 	   16.0000 	   33.6586 
    3.9902 	   30.8330 	   23.0000 	   16.0000 	   33.6936 
    4.0665 	   30.8535 	   23.0000 	   16.0000 	   33.7346 
    4.0513 	   30.8720 	   23.0000 	   16.0000 	   33.7716 
    4.0513 	   30.8900 	   23.0000 	   16.0000 	   33.8076 
    4.0208 	   30.9090 	   23.0000 	   16.0000 	   33.8456 
    4.1123 	   30.9275 	   23.0000 	   16.0000 	   33.8826 
    4.2039 	   30.9480 	   23.0000 	   16.0000 	   33.9236 
    4.0208 	   30.9665 	   23.0000 	   16.0000 	   33.9606 
    4.1276 	   30.9855 	   23.0000 	   16.0000 	   33.9986 
    4.0513 	   31.0055 	   23.0000 	   16.0000 	   34.0386 
    4.1733 	   31.0255 	   23.0000 	   16.0000 	   34.0786 
    4.0818 	   31.0450 	   23.0000 	   16.0000 	   34.1176 
    4.0513 	   31.0625 	   23.0000 	   16.0000 	   34.1526 
    4.0970 	   31.0810 	   23.0000 	   16.0000 	   34.1896 
    4.0665 	   31.1005 	   23.0000 	   16.0000 	   34.2286 
    4.1276 	   31.1195 	   23.0000 	   16.0000 	   34.2666 
    4.2344 	   31.1390 	   23.0000 	   16.0000 	   34.3056 
    4.1581 	   31.1575 	   23.0000 	   16.0000 	   34.3426 
    4.1733 	   31.1760 	   23.0000 	   16.0000 	   34.3796 
    4.0818 	   31.1945 	   23.0000 	   16.0000 	   34.4166 
    4.2039 	   31.2140 	   23.0000 	   16.0000 	   34.4557 
    4.0513 	   31.2325 	   23.0000 	   16.0000 	   34.4927 
    4.0665 	   31.2505 	   23.0000 	   16.0000 	   34.5287 
    4.0818 	   31.2695 	   23.0000 	   16.0000 	   34.5667 
    3.9902 	   31.2885 	   23.0000 	   16.0000 	   34.6047 
    4.2344 	   31.3075 	   23.0000 	   16.0000 	   34.6427 
    4.1428 	   31.3255 	   23.0000 	   16.0000 	   34.6787 
    4.0970 	   31.3420 	   23.0000 	   16.0000 	   34.7117 
    4.0970 	   31.3595 	   23.0000 	   16.0000 	   34.7467 
    4.0818 	   31.3780 	   23.0000 	   16.0000 	   34.7837 
    4.0818 	   31.3965 	   23.0000 	   16.0000 	   34.8207 
    4.1428 	   31.4160 	   23.0000 	   16.0000 	   34.8597 
    4.0970 	   31.4355 	   23.0000 	   16.0000 	   34.8987 
    4.1886 	   31.4550 	   23.0000 	   16.0000 	   34.9377 
    4.1733 	   31.4735 	   23.0000 	   16.0000 	   34.9747 
    4.1428 	   31.4920 	   23.0000 	   16.0000 	   35.0117 
    4.1123 	   31.5110 	   23.0000 	   16.0000 	   35.0497 
    4.0970 	   31.5305 	   23.0000 	   16.0000 	   35.0887 
    4.0970 	   31.5500 	   23.0000 	   16.0000 	   35.1277 
    4.2649 	   31.5690 	   23.0000 	   16.0000 	   35.1657 
    4.1581 	   31.5880 	   23.0000 	   16.0000 	   35.2037 
    4.1123 	   31.6065 	   23.0000 	   16.0000 	   35.2407 
    4.1123 	   31.6255 	   23.0000 	   16.0000 	   35.2787 
    4.2344 	   31.6445 	   23.0000 	   16.0000 	   35.3167 
    4.2039 	   31.6625 	   23.0000 	   16.0000 	   35.3527 
    4.1886 	   31.6815 	   23.0000 	   16.0000 	   35.3907 
    4.0818 	   31.6995 	   23.0000 	   16.0000 	   35.4267 
    4.2649 	   31.7195 	   23.0000 	   16.0000 	   35.4667 
    4.1733 	   31.7390 	   23.0000 	   16.0000 	   35.5057 
    4.2039 	   31.7585 	   23.0000 	   16.0000 	   35.5447 
    4.0360 	   31.7775 	   23.0000 	   16.0000 	   35.5827 
    4.3259 	   31.7955 	   23.0000 	   16.0000 	   35.6187 
    4.2496 	   31.8165 	   23.0000 	   16.0000 	   35.6607 
    4.1581 	   31.8365 	   23.0000 	   16.0000 	   35.7007 
    4.1276 	   31.8565 	   23.0000 	   16.0000 	   35.7407 
    4.2649 	   31.8760 	   23.0000 	   16.0000 	   35.7797 
    4.2191 	   31.8945 	   23.0000 	   16.0000 	   35.8167 
    4.3259 	   31.9140 	   23.0000 	   16.0000 	   35.8557 
    3.8376 	   31.9320 	   23.0000 	   16.0000 	   35.8917 
    4.1123 	   31.9520 	   23.0000 	   16.0000 	   35.9317 
    4.4327 	   31.9710 	   23.0000 	   16.0000 	   35.9697 
    4.2344 	   31.9900 	   23.0000 	   16.0000 	   36.0077 
    4.2344 	   32.0110 	   23.0000 	   16.0000 	   36.0497 
    4.3259 	   32.0305 	   23.0000 	   16.0000 	   36.0887 
    4.2954 	   32.0505 	   23.0000 	   16.0000 	   36.1287 
    4.2496 	   32.0685 	   23.0000 	   16.0000 	   36.1647 
    4.1123 	   32.0870 	   23.0000 	   16.0000 	   36.2018 
    4.2191 	   32.1050 	   23.0000 	   16.0000 	   36.2378 
    4.2802 	   32.1240 	   23.0000 	   16.0000 	   36.2758 
    4.3717 	   32.1440 	   23.0000 	   16.0000 	   36.3158 
    4.1581 	   32.1630 	   23.0000 	   16.0000 	   36.3538 
    4.2802 	   32.1820 	   23.0000 	   16.0000 	   36.3918 
    4.2954 	   32.2010 	   23.0000 	   16.0000 	   36.4298 
    4.2649 	   32.2200 	   23.0000 	   16.0000 	   36.4678 
    4.2191 	   32.2385 	   23.0000 	   16.0000 	   36.5048 
    4.2496 	   32.2590 	   23.0000 	   16.0000 	   36.5458 
    4.2802 	   32.2775 	   23.0000 	   16.0000 	   36.5828 
    4.2496 	   32.2955 	   23.0000 	   16.0000 	   36.6188 
    4.3259 	   32.3130 	   23.0000 	   16.0000 	   36.6538 
    4.4938 	   32.3300 	   23.0000 	   16.0000 	   36.6878 
    4.2496 	   32.3470 	   23.0000 	   16.0000 	   36.7218 
    4.1886 	   32.3645 	   23.0000 	   16.0000 	   36.7568 
    4.2039 	   32.3815 	   23.0000 	   16.0000 	   36.7908 
    4.3107 	   32.4000 	   23.0000 	   16.0000 	   36.8278 
    4.2802 	   32.4195 	   23.0000 	   16.0000 	   36.8668 
    4.2496 	   32.4395 	   23.0000 	   16.0000 	   36.9068 
    4.2802 	   32.4580 	   23.0000 	   16.0000 	   36.9438 
    4.2039 	   32.4775 	   23.0000 	   16.0000 	   36.9828 
    4.2191 	   32.4960 	   23.0000 	   16.0000 	   37.0198 
    4.3717 	   32.5140 	   23.0000 	   16.0000 	   37.0558 
    4.2039 	   32.5330 	   23.0000 	   16.0000 	   37.0938 
    4.3717 	   32.5530 	   23.0000 	   16.0000 	   37.1338 
    4.2954 	   32.5745 	   23.0000 	   16.0000 	   37.1758 
    4.2496 	   32.5935 	   23.0000 	   16.0000 	   37.2138 
    4.3717 	   32.6135 	   23.0000 	   16.0000 	   37.2538 
    4.2649 	   32.6325 	   23.0000 	   16.0000 	   37.2918 
    4.1733 	   32.6530 	   23.0000 	   16.0000 	   37.3328 
    4.2344 	   32.6715 	   23.0000 	   16.0000 	   37.3698 
    4.1581 	   32.6910 	   23.0000 	   16.0000 	   37.4088 
    4.2802 	   32.7090 	   23.0000 	   16.0000 	   37.4448 
    3.9902 	   32.7285 	   23.0000 	   16.0000 	   37.4838 
    4.0665 	   32.7465 	   23.0000 	   16.0000 	   37.5198 
    4.2954 	   32.7660 	   23.0000 	   16.0000 	   37.5588 
    4.3565 	   32.7845 	   23.0000 	   16.0000 	   37.5958 
    4.3259 	   32.8035 	   23.0000 	   16.0000 	   37.6338 
    4.4327 	   32.8230 	   23.0000 	   16.0000 	   37.6728 
    4.1428 	   32.8420 	   23.0000 	   16.0000 	   37.7108 
    4.3717 	   32.8620 	   23.0000 	   16.0000 	   37.7508 
    4.2649 	   32.8815 	   23.0000 	   16.0000 	   37.7898 
    4.2191 	   32.9005 	   23.0000 	   16.0000 	   37.8278 
    4.2802 	   32.9190 	   23.0000 	   16.0000 	   37.8648 
    4.3107 	   32.9380 	   23.0000 	   16.0000 	   37.9029 
    4.4175 	   32.9565 	   23.0000 	   16.0000 	   37.9398 
    4.3107 	   32.9760 	   23.0000 	   16.0000 	   37.9789 
    4.3565 	   32.9950 	   23.0000 	   16.0000 	   38.0169 
    4.3565 	   33.0140 	   23.0000 	   16.0000 	   38.0549 
    4.1123 	   33.0340 	   23.0000 	   16.0000 	   38.0949 
    4.1428 	   33.0545 	   23.0000 	   16.0000 	   38.1359 
    4.3259 	   33.0740 	   23.0000 	   16.0000 	   38.1749 
    4.3259 	   33.0940 	   23.0000 	   16.0000 	   38.2149 
    4.4022 	   33.1140 	   23.0000 	   16.0000 	   38.2549 
    4.3259 	   33.1330 	   23.0000 	   16.0000 	   38.2929 
    4.3717 	   33.1540 	   23.0000 	   16.0000 	   38.3349 
    4.3412 	   33.1725 	   23.0000 	   16.0000 	   38.3719 
    4.4022 	   33.1920 	   23.0000 	   16.0000 	   38.4109 
    4.3565 	   33.2115 	   23.0000 	   16.0000 	   38.4499 
    4.1581 	   33.2305 	   23.0000 	   16.0000 	   38.4879 
    4.2802 	   33.2500 	   23.0000 	   16.0000 	   38.5269 
    4.4022 	   33.2705 	   23.0000 	   16.0000 	   38.5679 
    4.3717 	   33.2905 	   23.0000 	   16.0000 	   38.6079 
    4.5396 	   33.3095 	   23.0000 	   16.0000 	   38.6459 
    4.3565 	   33.3290 	   23.0000 	   16.0000 	   38.6849 
    4.4938 	   33.3505 	   23.0000 	   16.0000 	   38.7279 
    4.4022 	   33.3705 	   23.0000 	   16.0000 	   38.7679 
    4.3870 	   33.3900 	   23.0000 	   16.0000 	   38.8069 
    4.4938 	   33.4090 	   23.0000 	   16.0000 	   38.8449 
    4.3412 	   33.4285 	   23.0000 	   16.0000 	   38.8839 
    4.3717 	   33.4465 	   23.0000 	   16.0000 	   38.9199 
    4.3870 	   33.4635 	   23.0000 	   16.0000 	   38.9539 
    4.3412 	   33.4815 	   23.0000 	   16.0000 	   38.9899 
    4.4785 	   33.5010 	   23.0000 	   16.0000 	   39.0289 
    4.3870 	   33.5210 	   23.0000 	   16.0000 	   39.0689 
    4.4785 	   33.5420 	   23.0000 	   16.0000 	   39.1109 
    4.5090 	   33.5615 	   23.0000 	   16.0000 	   39.1499 
    4.4327 	   33.5805 	   23.0000 	   16.0000 	   39.1879 
    4.4785 	   33.6000 	   23.0000 	   16.0000 	   39.2269 
    4.3870 	   33.6190 	   23.0000 	   16.0000 	   39.2649 
    4.2954 	   33.6380 	   23.0000 	   16.0000 	   39.3029 
    4.4633 	   33.6585 	   23.0000 	   16.0000 	   39.3439 
    4.4327 	   33.6775 	   23.0000 	   16.0000 	   39.3819 
    4.4022 	   33.6970 	   23.0000 	   16.0000 	   39.4209 
    4.4938 	   33.7160 	   23.0000 	   16.0000 	   39.4589 
    4.5090 	   33.7355 	   23.0000 	   16.0000 	   39.4979 
    4.4480 	   33.7555 	   23.0000 	   16.0000 	   39.5379 
    4.3565 	   33.7745 	   23.0000 	   16.0000 	   39.5759 
    4.4480 	   33.7945 	   23.0000 	   16.0000 	   39.6159 
    4.5701 	   33.8160 	   23.0000 	   16.0000 	   39.6590 
    4.4022 	   33.8360 	   23.0000 	   16.0000 	   39.6990 
    4.5396 	   33.8555 	   23.0000 	   16.0000 	   39.7380 
    4.4633 	   33.8755 	   23.0000 	   16.0000 	   39.7780 
    4.4175 	   33.8940 	   23.0000 	   16.0000 	   39.8150 
    4.1428 	   33.9140 	   23.0000 	   16.0000 	   39.8550 
    4.6006 	   33.9330 	   23.0000 	   16.0000 	   39.8930 
    4.5396 	   33.9530 	   23.0000 	   16.0000 	   39.9330 
    4.4938 	   33.9735 	   23.0000 	   16.0000 	   39.9740 
    4.5090 	   33.9915 	   23.0000 	   16.0000 	   40.0100 
    4.5396 	   34.0110 	   23.0000 	   16.0000 	   40.0490 
    4.5243 	   34.0305 	   23.0000 	   16.0000 	   40.0880 
    4.6769 	   34.0510 	   23.0000 	   16.0000 	   40.1290 
    4.3717 	   34.0705 	   23.0000 	   16.0000 	   40.1680 
    4.1581 	   34.0895 	   23.0000 	   16.0000 	   40.2060 
    4.4938 	   34.1090 	   23.0000 	   16.0000 	   40.2450 
    4.4938 	   34.1280 	   23.0000 	   16.0000 	   40.2830 
    4.4938 	   34.1470 	   23.0000 	   16.0000 	   40.3210 
    4.1886 	   34.1665 	   23.0000 	   16.0000 	   40.3600 
    4.6464 	   34.1870 	   23.0000 	   16.0000 	   40.4010 
    4.4938 	   34.2065 	   23.0000 	   16.0000 	   40.4400 
    4.5853 	   34.2250 	   23.0000 	   16.0000 	   40.4770 
    4.5090 	   34.2430 	   23.0000 	   16.0000 	   40.5130 
    4.6159 	   34.2625 	   23.0000 	   16.0000 	   40.5520 
    4.4938 	   34.2810 	   23.0000 	   16.0000 	   40.5890 
    4.4785 	   34.3015 	   23.0000 	   16.0000 	   40.6300 
    4.5090 	   34.3210 	   23.0000 	   16.0000 	   40.6690 
    4.5396 	   34.3400 	   23.0000 	   16.0000 	   40.7070 
    4.6159 	   34.3595 	   23.0000 	   16.0000 	   40.7460 
    4.5090 	   34.3790 	   23.0000 	   16.0000 	   40.7850 
    4.5243 	   34.3985 	   23.0000 	   16.0000 	   40.8240 
    4.4938 	   34.4175 	   23.0000 	   16.0000 	   40.8620 
    4.7532 	   34.4365 	   23.0000 	   16.0000 	   40.9000 
    4.6006 	   34.4570 	   23.0000 	   16.0000 	   40.9410 
    4.7074 	   34.4780 	   23.0000 	   16.0000 	   40.9830 
    4.6769 	   34.4950 	   23.0000 	   16.0000 	   41.0170 
    4.5548 	   34.5130 	   23.0000 	   16.0000 	   41.0530 
    4.6464 	   34.5315 	   23.0000 	   16.0000 	   41.0900 
    4.6006 	   34.5505 	   23.0000 	   16.0000 	   41.1280 
    4.6159 	   34.5690 	   23.0000 	   16.0000 	   41.1650 
    4.5701 	   34.5885 	   23.0000 	   16.0000 	   41.2040 
    4.5090 	   34.6075 	   23.0000 	   16.0000 	   41.2420 
    4.6159 	   34.6265 	   23.0000 	   16.0000 	   41.2800 
    4.6159 	   34.6460 	   23.0000 	   16.0000 	   41.3190 
    4.4785 	   34.6655 	   23.0000 	   16.0000 	   41.3580 
    4.5243 	   34.6850 	   23.0000 	   16.0000 	   41.3970 
    4.6006 	   34.7045 	   23.0000 	   16.0000 	   41.4361 
    4.6616 	   34.7245 	   23.0000 	   16.0000 	   41.4761 
    4.5090 	   34.7440 	   23.0000 	   16.0000 	   41.5151 
    4.6311 	   34.7640 	   23.0000 	   16.0000 	   41.5551 
    4.5853 	   34.7825 	   23.0000 	   16.0000 	   41.5921 
    4.6616 	   34.8030 	   23.0000 	   16.0000 	   41.6331 
    4.7227 	   34.8225 	   23.0000 	   16.0000 	   41.6721 
    4.6006 	   34.8430 	   23.0000 	   16.0000 	   41.7121 
    4.6159 	   34.8610 	   23.0000 	   16.0000 	   41.7491 
    4.5548 	   34.8815 	   23.0000 	   16.0000 	   41.7901 
    4.6616 	   34.9005 	   23.0000 	   16.0000 	   41.8281 
    4.5701 	   34.9210 	   23.0000 	   16.0000 	   41.8691 
    4.5396 	   34.9405 	   23.0000 	   16.0000 	   41.9081 
    4.5701 	   34.9595 	   23.0000 	   16.0000 	   41.9461 
    4.6769 	   34.9780 	   23.0000 	   16.0000 	   41.9831 
    4.5548 	   34.9980 	   23.0000 	   16.0000 	   42.0231 
    4.4938 	   35.0180 	   23.0000 	   16.0000 	   42.0631 
    4.7684 	   35.0365 	   23.0000 	   16.0000 	   42.1001 
    4.6464 	   35.0575 	   23.0000 	   16.0000 	   42.1421 
    4.6159 	   35.0755 	   23.0000 	   16.0000 	   42.1781 
    4.6769 	   35.0950 	   23.0000 	   16.0000 	   42.2171 
    4.5701 	   35.1145 	   23.0000 	   16.0000 	   42.2561 
    4.6159 	   35.1340 	   23.0000 	   16.0000 	   42.2951 
    4.5548 	   35.1530 	   23.0000 	   16.0000 	   42.3331 
    4.7990 	   35.1735 	   23.0000 	   16.0000 	   42.3731 
    4.7227 	   35.1925 	   23.0000 	   16.0000 	   42.4121 
    4.6006 	   35.2120 	   23.0000 	   16.0000 	   42.4511 
    4.6616 	   35.2315 	   23.0000 	   16.0000 	   42.4901 
    4.7227 	   35.2510 	   23.0000 	   16.0000 	   42.5291 
    4.6769 	   35.2705 	   23.0000 	   16.0000 	   42.5681 
    4.9363 	   35.2905 	   23.0000 	   16.0000 	   42.6081 
    4.5548 	   35.3095 	   23.0000 	   16.0000 	   42.6461 
    4.5548 	   35.3300 	   23.0000 	   16.0000 	   42.6871 
    4.6006 	   35.3480 	   23.0000 	   16.0000 	   42.7231 
    4.7379 	   35.3680 	   23.0000 	   16.0000 	   42.7631 
    4.7379 	   35.3880 	   23.0000 	   16.0000 	   42.8031 
    4.7227 	   35.4070 	   23.0000 	   16.0000 	   42.8411 
    4.9363 	   35.4265 	   23.0000 	   16.0000 	   42.8801 
    4.7379 	   35.4455 	   23.0000 	   16.0000 	   42.9181 
    4.7074 	   35.4645 	   23.0000 	   16.0000 	   42.9561 
    4.4785 	   35.4840 	   23.0000 	   16.0000 	   42.9951 
    4.7684 	   35.5040 	   23.0000 	   16.0000 	   43.0351 
    4.6159 	   35.5225 	   23.0000 	   16.0000 	   43.0721 
    4.7837 	   35.5420 	   23.0000 	   16.0000 	   43.1111 
    4.6006 	   35.5610 	   23.0000 	   16.0000 	   43.1492 
    4.7379 	   35.5815 	   23.0000 	   16.0000 	   43.1902 
    4.7532 	   35.6015 	   23.0000 	   16.0000 	   43.2302 
    4.6769 	   35.6210 	   23.0000 	   16.0000 	   43.2692 
    4.6006 	   35.6415 	   23.0000 	   16.0000 	   43.3102 
    4.8600 	   35.6615 	   23.0000 	   16.0000 	   43.3502 
    4.8753 	   35.6805 	   23.0000 	   16.0000 	   43.3882 
    4.4938 	   35.7000 	   23.0000 	   16.0000 	   43.4272 
    4.4022 	   35.7200 	   23.0000 	   16.0000 	   43.4672 
    4.7684 	   35.7390 	   23.0000 	   16.0000 	   43.5052 
    4.6464 	   35.7585 	   23.0000 	   16.0000 	   43.5442 
    4.8142 	   35.7765 	   23.0000 	   16.0000 	   43.5802 
    4.5090 	   35.7955 	   23.0000 	   16.0000 	   43.6182 
    4.5243 	   35.8155 	   23.0000 	   16.0000 	   43.6582 
    4.7532 	   35.8360 	   23.0000 	   16.0000 	   43.6992 
    4.7532 	   35.8550 	   23.0000 	   16.0000 	   43.7372 
    4.9516 	   35.8740 	   23.0000 	   16.0000 	   43.7752 
    4.6921 	   35.8930 	   23.0000 	   16.0000 	   43.8132 
    4.9516 	   35.9125 	   23.0000 	   16.0000 	   43.8522 
    4.6769 	   35.9325 	   23.0000 	   16.0000 	   43.8922 
    4.7990 	   35.9520 	   23.0000 	   16.0000 	   43.9312 
    4.9516 	   35.9715 	   23.0000 	   16.0000 	   43.9702 
    4.7990 	   35.9915 	   23.0000 	   16.0000 	   44.0102 
    4.7532 	   36.0105 	   23.0000 	   16.0000 	   44.0482 
    4.8142 	   36.0305 	   23.0000 	   16.0000 	   44.0882 
    4.7379 	   36.0510 	   23.0000 	   16.0000 	   44.1292 
    4.7532 	   36.0705 	   23.0000 	   16.0000 	   44.1682 
    4.8905 	   36.0905 	   23.0000 	   16.0000 	   44.2082 
    4.9516 	   36.1090 	   23.0000 	   16.0000 	   44.2452 
    4.9516 	   36.1280 	   23.0000 	   16.0000 	   44.2832 
    4.8142 	   36.1470 	   23.0000 	   16.0000 	   44.3212 
    4.8905 	   36.1665 	   23.0000 	   16.0000 	   44.3602 
    4.7532 	   36.1855 	   23.0000 	   16.0000 	   44.3982 
    5.0278 	   36.2055 	   23.0000 	   16.0000 	   44.4382 
    4.8295 	   36.2235 	   23.0000 	   16.0000 	   44.4742 
    4.7837 	   36.2435 	   23.0000 	   16.0000 	   44.5142 
    4.7227 	   36.2610 	   23.0000 	   16.0000 	   44.5492 
    4.8600 	   36.2780 	   23.0000 	   16.0000 	   44.5832 
    4.9363 	   36.2960 	   23.0000 	   16.0000 	   44.6192 
    4.7227 	   36.3130 	   23.0000 	   16.0000 	   44.6532 
    4.5396 	   36.3300 	   23.0000 	   16.0000 	   44.6872 
    4.7532 	   36.3475 	   23.0000 	   16.0000 	   44.7222 
    4.8753 	   36.3650 	   23.0000 	   16.0000 	   44.7572 
    4.7990 	   36.3825 	   23.0000 	   16.0000 	   44.7922 
    4.7837 	   36.4000 	   23.0000 	   16.0000 	   44.8272 
    4.9516 	   36.4190 	   23.0000 	   16.0000 	   44.8652 
    4.5548 	   36.4370 	   23.0000 	   16.0000 	   44.9012 
    4.8295 	   36.4565 	   23.0000 	   16.0000 	   44.9403 
    4.8600 	   36.4765 	   23.0000 	   16.0000 	   44.9803 
    4.8447 	   36.4970 	   23.0000 	   16.0000 	   45.0213 
    4.8295 	   36.5160 	   23.0000 	   16.0000 	   45.0593 
    4.7074 	   36.5345 	   23.0000 	   16.0000 	   45.0963 
    4.9363 	   36.5540 	   23.0000 	   16.0000 	   45.1353 
    4.8600 	   36.5725 	   23.0000 	   16.0000 	   45.1723 
    4.8600 	   36.5905 	   23.0000 	   16.0000 	   45.2083 
    4.9363 	   36.6080 	   23.0000 	   16.0000 	   45.2433 
    4.8295 	   36.6260 	   23.0000 	   16.0000 	   45.2793 
    4.9973 	   36.6435 	   23.0000 	   16.0000 	   45.3143 
    4.8142 	   36.6605 	   23.0000 	   16.0000 	   45.3483 
    4.8600 	   36.6785 	   23.0000 	   16.0000 	   45.3843 
    4.5090 	   36.6965 	   23.0000 	   16.0000 	   45.4203 
    4.8600 	   36.7155 	   23.0000 	   16.0000 	   45.4583 
    4.8447 	   36.7340 	   23.0000 	   16.0000 	   45.4953 
    4.8295 	   36.7540 	   23.0000 	   16.0000 	   45.5353 
    5.0584 	   36.7745 	   23.0000 	   16.0000 	   45.5763 
    4.7990 	   36.7940 	   23.0000 	   16.0000 	   45.6153 
    5.0584 	   36.8155 	   23.0000 	   16.0000 	   45.6583 
    4.9210 	   36.8350 	   23.0000 	   16.0000 	   45.6973 
    4.9668 	   36.8545 	   23.0000 	   16.0000 	   45.7363 
    4.8905 	   36.8745 	   23.0000 	   16.0000 	   45.7763 
    4.9058 	   36.8930 	   23.0000 	   16.0000 	   45.8133 
    4.9363 	   36.9145 	   23.0000 	   16.0000 	   45.8563 
    4.9210 	   36.9345 	   23.0000 	   16.0000 	   45.8963 
    4.8295 	   36.9540 	   23.0000 	   16.0000 	   45.9353 
    5.1194 	   36.9735 	   23.0000 	   16.0000 	   45.9743 
    4.5853 	   36.9940 	   23.0000 	   16.0000 	   46.0153 
    4.9516 	   37.0155 	   23.0000 	   16.0000 	   46.0583 
    4.8753 	   37.0355 	   23.0000 	   16.0000 	   46.0983 
    5.1347 	   37.0550 	   23.0000 	   16.0000 	   46.1373 
    4.9821 	   37.0720 	   23.0000 	   16.0000 	   46.1713 
    4.9363 	   37.0910 	   23.0000 	   16.0000 	   46.2093 
    4.8905 	   37.1105 	   23.0000 	   16.0000 	   46.2483 
    4.9973 	   37.1300 	   23.0000 	   16.0000 	   46.2873 
    5.0278 	   37.1495 	   23.0000 	   16.0000 	   46.3263 
    4.9058 	   37.1690 	   23.0000 	   16.0000 	   46.3653 
    4.8753 	   37.1885 	   23.0000 	   16.0000 	   46.4043 
    4.8295 	   37.2090 	   23.0000 	   16.0000 	   46.4453 
    4.9516 	   37.2280 	   23.0000 	   16.0000 	   46.4833 
    4.8753 	   37.2475 	   23.0000 	   16.0000 	   46.5223 
    5.0736 	   37.2660 	   23.0000 	   16.0000 	   46.5593 
    5.0736 	   37.2855 	   23.0000 	   16.0000 	   46.5983 
    4.8447 	   37.3040 	   23.0000 	   16.0000 	   46.6353 
    4.8905 	   37.3240 	   23.0000 	   16.0000 	   46.6754 
    4.6006 	   37.3440 	   23.0000 	   16.0000 	   46.7154 
    4.9668 	   37.3630 	   23.0000 	   16.0000 	   46.7534 
    4.9516 	   37.3820 	   23.0000 	   16.0000 	   46.7914 
    4.7379 	   37.4025 	   23.0000 	   16.0000 	   46.8324 
    5.0584 	   37.4210 	   23.0000 	   16.0000 	   46.8694 
    5.0278 	   37.4400 	   23.0000 	   16.0000 	   46.9074 
    4.9668 	   37.4590 	   23.0000 	   16.0000 	   46.9454 
    5.0126 	   37.4780 	   23.0000 	   16.0000 	   46.9834 
    4.9516 	   37.4985 	   23.0000 	   16.0000 	   47.0244 
    5.1041 	   37.5180 	   23.0000 	   16.0000 	   47.0634 
    4.9821 	   37.5375 	   23.0000 	   16.0000 	   47.1024 
    5.0278 	   37.5575 	   23.0000 	   16.0000 	   47.1424 
    4.7379 	   37.5775 	   23.0000 	   16.0000 	   47.1824 
    5.0431 	   37.5975 	   23.0000 	   16.0000 	   47.2224 
    4.9363 	   37.6190 	   23.0000 	   16.0000 	   47.2654 
    4.9516 	   37.6385 	   23.0000 	   16.0000 	   47.3044 
    4.9821 	   37.6590 	   23.0000 	   16.0000 	   47.3454 
    4.9821 	   37.6785 	   23.0000 	   16.0000 	   47.3844 
    5.1041 	   37.6995 	   23.0000 	   16.0000 	   47.4264 
    5.0126 	   37.7190 	   23.0000 	   16.0000 	   47.4654 
    5.1041 	   37.7380 	   23.0000 	   16.0000 	   47.5034 
    4.9973 	   37.7585 	   23.0000 	   16.0000 	   47.5444 
    4.9973 	   37.7785 	   23.0000 	   16.0000 	   47.5844 
    4.9058 	   37.7965 	   23.0000 	   16.0000 	   47.6204 
    5.1652 	   37.8160 	   23.0000 	   16.0000 	   47.6594 
    4.9668 	   37.8360 	   23.0000 	   16.0000 	   47.6994 
    5.0736 	   37.8565 	   23.0000 	   16.0000 	   47.7404 
    4.9821 	   37.8765 	   23.0000 	   16.0000 	   47.7804 
    4.7532 	   37.8960 	   23.0000 	   16.0000 	   47.8194 
    5.1652 	   37.9160 	   23.0000 	   16.0000 	   47.8594 
    5.1957 	   37.9350 	   23.0000 	   16.0000 	   47.8974 
    4.9516 	   37.9540 	   23.0000 	   16.0000 	   47.9354 
    5.0126 	   37.9745 	   23.0000 	   16.0000 	   47.9764 
    5.1194 	   37.9925 	   23.0000 	   16.0000 	   48.0124 
    5.0736 	   38.0100 	   23.0000 	   16.0000 	   48.0474 
    4.9058 	   38.0280 	   23.0000 	   16.0000 	   48.0834 
    5.2720 	   38.0475 	   23.0000 	   16.0000 	   48.1224 
    5.0889 	   38.0650 	   23.0000 	   16.0000 	   48.1574 
    5.1041 	   38.0840 	   23.0000 	   16.0000 	   48.1954 
    5.0889 	   38.1015 	   23.0000 	   16.0000 	   48.2304 
    5.0278 	   38.1190 	   23.0000 	   16.0000 	   48.2654 
    4.7837 	   38.1385 	   23.0000 	   16.0000 	   48.3044 
    4.9210 	   38.1585 	   23.0000 	   16.0000 	   48.3444 
    5.0431 	   38.1785 	   23.0000 	   16.0000 	   48.3844 
    5.1194 	   38.1995 	   23.0000 	   16.0000 	   48.4265 
    5.0736 	   38.2200 	   23.0000 	   16.0000 	   48.4675 
    5.0889 	   38.2395 	   23.0000 	   16.0000 	   48.5065 
    5.0431 	   38.2595 	   23.0000 	   16.0000 	   48.5465 
    5.0889 	   38.2795 	   23.0000 	   16.0000 	   48.5865 
    5.2110 	   38.2985 	   23.0000 	   16.0000 	   48.6245 
    5.2415 	   38.3185 	   23.0000 	   16.0000 	   48.6645 
    5.0126 	   38.3375 	   23.0000 	   16.0000 	   48.7025 
    5.0736 	   38.3575 	   23.0000 	   16.0000 	   48.7415 
    5.1499 	   38.3785 	   23.0000 	   16.0000 	   48.7845 
    5.0736 	   38.3980 	   23.0000 	   16.0000 	   48.8235 
    4.9516 	   38.4175 	   23.0000 	   16.0000 	   48.8625 
    5.1652 	   38.4375 	   23.0000 	   16.0000 	   48.9025 
    5.2262 	   38.4570 	   23.0000 	   16.0000 	   48.9415 
    5.1652 	   38.4775 	   23.0000 	   16.0000 	   48.9825 
    4.9821 	   38.4985 	   23.0000 	   16.0000 	   49.0245 
    5.1041 	   38.5190 	   23.0000 	   16.0000 	   49.0655 
    5.2262 	   38.5380 	   23.0000 	   16.0000 	   49.1035 
    5.2567 	   38.5580 	   23.0000 	   16.0000 	   49.1435 
    5.1804 	   38.5785 	   23.0000 	   16.0000 	   49.1845 
    5.1194 	   38.5985 	   23.0000 	   16.0000 	   49.2245 
    5.1499 	   38.6175 	   23.0000 	   16.0000 	   49.2625 
    5.1194 	   38.6370 	   23.0000 	   16.0000 	   49.3015 
    5.1499 	   38.6570 	   23.0000 	   16.0000 	   49.3415 
    5.2262 	   38.6770 	   23.0000 	   16.0000 	   49.3815 
    5.1957 	   38.6950 	   23.0000 	   16.0000 	   49.4175 
    5.1804 	   38.7160 	   23.0000 	   16.0000 	   49.4595 
    5.1041 	   38.7365 	   23.0000 	   16.0000 	   49.5005 
    5.1957 	   38.7560 	   23.0000 	   16.0000 	   49.5395 
    5.1652 	   38.7750 	   23.0000 	   16.0000 	   49.5775 
    5.1957 	   38.7950 	   23.0000 	   16.0000 	   49.6175 
    5.1041 	   38.8155 	   23.0000 	   16.0000 	   49.6585 
    5.1652 	   38.8370 	   23.0000 	   16.0000 	   49.7015 
    5.2262 	   38.8565 	   23.0000 	   16.0000 	   49.7405 
    5.3178 	   38.8760 	   23.0000 	   16.0000 	   49.7795 
    5.1194 	   38.8970 	   23.0000 	   16.0000 	   49.8215 
    5.1194 	   38.9195 	   23.0000 	   16.0000 	   49.8665 
    5.2567 	   38.9400 	   23.0000 	   16.0000 	   49.9075 
    5.3788 	   38.9600 	   23.0000 	   16.0000 	   49.9475 
    5.1804 	   38.9795 	   23.0000 	   16.0000 	   49.9865 
    5.2262 	   38.9995 	   23.0000 	   16.0000 	   50.0265 
    5.2567 	   39.0200 	   23.0000 	   16.0000 	   50.0675 
    5.2110 	   39.0400 	   23.0000 	   16.0000 	   50.1075 
    5.2262 	   39.0600 	   23.0000 	   16.0000 	   50.1475 
    5.2110 	   39.0795 	   23.0000 	   16.0000 	   50.1866 
    5.2415 	   39.0990 	   23.0000 	   16.0000 	   50.2256 
    5.2262 	   39.1185 	   23.0000 	   16.0000 	   50.2646 
    5.3025 	   39.1390 	   23.0000 	   16.0000 	   50.3056 
    5.2262 	   39.1590 	   23.0000 	   16.0000 	   50.3456 
    5.1652 	   39.1785 	   23.0000 	   16.0000 	   50.3846 
    5.2262 	   39.1975 	   23.0000 	   16.0000 	   50.4226 
    5.2110 	   39.2175 	   23.0000 	   16.0000 	   50.4626 
    5.2720 	   39.2375 	   23.0000 	   16.0000 	   50.5026 
    5.3178 	   39.2560 	   23.0000 	   16.0000 	   50.5396 
    5.4704 	   39.2750 	   23.0000 	   16.0000 	   50.5776 
    5.2415 	   39.2955 	   23.0000 	   16.0000 	   50.6186 
    5.3330 	   39.3180 	   23.0000 	   16.0000 	   50.6636 
    5.2262 	   39.3380 	   23.0000 	   16.0000 	   50.7036 
    5.5619 	   39.3585 	   23.0000 	   16.0000 	   50.7446 
    5.3483 	   39.3785 	   23.0000 	   16.0000 	   50.7846 
    5.2873 	   39.4015 	   23.0000 	   16.0000 	   50.8306 
    5.2567 	   39.4220 	   23.0000 	   16.0000 	   50.8716 
    5.3635 	   39.4420 	   23.0000 	   16.0000 	   50.9116 
    5.1957 	   39.4620 	   23.0000 	   16.0000 	   50.9516 
    5.3788 	   39.4830 	   23.0000 	   16.0000 	   50.9936 
    5.4246 	   39.5030 	   23.0000 	   16.0000 	   51.0336 
    5.0278 	   39.5205 	   23.0000 	   16.0000 	   51.0686 
    5.2415 	   39.5380 	   23.0000 	   16.0000 	   51.1036 
    5.2873 	   39.5555 	   23.0000 	   16.0000 	   51.1386 
    5.4093 	   39.5740 	   23.0000 	   16.0000 	   51.1756 
    5.3483 	   39.5935 	   23.0000 	   16.0000 	   51.2146 
    5.3025 	   39.6130 	   23.0000 	   16.0000 	   51.2536 
    5.3941 	   39.6325 	   23.0000 	   16.0000 	   51.2926 
    5.6382 	   39.6515 	   23.0000 	   16.0000 	   51.3306 
    5.3635 	   39.6715 	   23.0000 	   16.0000 	   51.3706 
    5.4856 	   39.6940 	   23.0000 	   16.0000 	   51.4156 
    5.4856 	   39.7135 	   23.0000 	   16.0000 	   51.4546 
    5.3941 	   39.7335 	   23.0000 	   16.0000 	   51.4946 
    5.4704 	   39.7535 	   23.0000 	   16.0000 	   51.5346 
    5.4093 	   39.7730 	   23.0000 	   16.0000 	   51.5736 
    5.4246 	   39.7920 	   23.0000 	   16.0000 	   51.6116 
    5.4093 	   39.8155 	   23.0000 	   16.0000 	   51.6586 
    5.3178 	   39.8365 	   23.0000 	   16.0000 	   51.7006 
    5.3788 	   39.8575 	   23.0000 	   16.0000 	   51.7426 
    5.4856 	   39.8780 	   23.0000 	   16.0000 	   51.7836 
    5.2567 	   39.8975 	   23.0000 	   16.0000 	   51.8226 
    5.2873 	   39.9180 	   23.0000 	   16.0000 	   51.8636 
    5.2873 	   39.9380 	   23.0000 	   16.0000 	   51.9036 
    5.3483 	   39.9580 	   23.0000 	   16.0000 	   51.9437 
    5.3025 	   39.9775 	   23.0000 	   16.0000 	   51.9827 
    5.4398 	   39.9975 	   23.0000 	   16.0000 	   52.0227 
    5.4093 	   40.0175 	   23.0000 	   16.0000 	   52.0627 
    5.4093 	   40.0370 	   23.0000 	   16.0000 	   52.1017 
    5.5467 	   40.0580 	   23.0000 	   16.0000 	   52.1427 
    5.4246 	   40.0775 	   23.0000 	   16.0000 	   52.1827 
    5.4093 	   40.0965 	   23.0000 	   16.0000 	   52.2207 
    5.3025 	   40.1165 	   23.0000 	   16.0000 	   52.2607 
    5.5314 	   40.1360 	   23.0000 	   16.0000 	   52.2997 
    5.4246 	   40.1575 	   23.0000 	   16.0000 	   52.3427 
    5.4093 	   40.1775 	   23.0000 	   16.0000 	   52.3827 
    5.3941 	   40.1975 	   23.0000 	   16.0000 	   52.4227 
    5.3483 	   40.2175 	   23.0000 	   16.0000 	   52.4627 
    5.4398 	   40.2375 	   23.0000 	   16.0000 	   52.5027 
    5.4856 	   40.2575 	   23.0000 	   16.0000 	   52.5427 
    5.4246 	   40.2780 	   23.0000 	   16.0000 	   52.5837 
    5.4551 	   40.2965 	   23.0000 	   16.0000 	   52.6207 
    5.4246 	   40.3155 	   23.0000 	   16.0000 	   52.6587 
    5.4704 	   40.3345 	   23.0000 	   16.0000 	   52.6967 
    5.4093 	   40.3530 	   23.0000 	   16.0000 	   52.7337 
    5.4704 	   40.3705 	   23.0000 	   16.0000 	   52.7687 
    5.5619 	   40.3880 	   23.0000 	   16.0000 	   52.8037 
    5.1194 	   40.4055 	   23.0000 	   16.0000 	   52.8387 
    5.6535 	   40.4230 	   23.0000 	   16.0000 	   52.8737 
    5.4246 	   40.4430 	   23.0000 	   16.0000 	   52.9137 
    5.4856 	   40.4620 	   23.0000 	   16.0000 	   52.9517 
    5.5467 	   40.4820 	   23.0000 	   16.0000 	   52.9917 
    5.4856 	   40.5015 	   23.0000 	   16.0000 	   53.0307 
    5.5161 	   40.5215 	   23.0000 	   16.0000 	   53.0707 
    5.6229 	   40.5410 	   23.0000 	   16.0000 	   53.1097 
    5.4856 	   40.5615 	   23.0000 	   16.0000 	   53.1507 
    5.4246 	   40.5810 	   23.0000 	   16.0000 	   53.1897 
    5.5314 	   40.6005 	   23.0000 	   16.0000 	   53.2287 
    5.5772 	   40.6210 	   23.0000 	   16.0000 	   53.2697 
    5.4856 	   40.6410 	   23.0000 	   16.0000 	   53.3097 
    5.4093 	   40.6610 	   23.0000 	   16.0000 	   53.3497 
    5.5619 	   40.6810 	   23.0000 	   16.0000 	   53.3897 
    5.4246 	   40.7010 	   23.0000 	   16.0000 	   53.4297 
    5.5161 	   40.7215 	   23.0000 	   16.0000 	   53.4707 
    5.6382 	   40.7415 	   23.0000 	   16.0000 	   53.5107 
    5.5161 	   40.7625 	   23.0000 	   16.0000 	   53.5527 
    5.5314 	   40.7815 	   23.0000 	   16.0000 	   53.5907 
    5.5924 	   40.8015 	   23.0000 	   16.0000 	   53.6307 
    5.5619 	   40.8205 	   23.0000 	   16.0000 	   53.6688 
    5.5924 	   40.8405 	   23.0000 	   16.0000 	   53.7088 
    5.2720 	   40.8600 	   23.0000 	   16.0000 	   53.7478 
    5.5314 	   40.8805 	   23.0000 	   16.0000 	   53.7888 
    5.5467 	   40.9010 	   23.0000 	   16.0000 	   53.8298 
    5.5772 	   40.9210 	   23.0000 	   16.0000 	   53.8698 
    5.4398 	   40.9405 	   23.0000 	   16.0000 	   53.9088 
    5.6077 	   40.9595 	   23.0000 	   16.0000 	   53.9468 
    5.5467 	   40.9795 	   23.0000 	   16.0000 	   53.9868 
    5.5772 	   40.9985 	   23.0000 	   16.0000 	   54.0248 
    5.4704 	   41.0190 	   23.0000 	   16.0000 	   54.0658 
    5.5161 	   41.0390 	   23.0000 	   16.0000 	   54.1058 
    5.5772 	   41.0595 	   23.0000 	   16.0000 	   54.1468 
    5.6382 	   41.0805 	   23.0000 	   16.0000 	   54.1888 
    5.5924 	   41.0985 	   23.0000 	   16.0000 	   54.2248 
    5.5772 	   41.1160 	   23.0000 	   16.0000 	   54.2598 
    5.6229 	   41.1350 	   23.0000 	   16.0000 	   54.2978 
    5.6992 	   41.1540 	   23.0000 	   16.0000 	   54.3358 
    5.6382 	   41.1715 	   23.0000 	   16.0000 	   54.3708 
    5.6840 	   41.1910 	   23.0000 	   16.0000 	   54.4098 
    5.7603 	   41.2100 	   23.0000 	   16.0000 	   54.4478 
    5.5772 	   41.2295 	   23.0000 	   16.0000 	   54.4868 
    5.5467 	   41.2515 	   23.0000 	   16.0000 	   54.5308 
    5.5619 	   41.2715 	   23.0000 	   16.0000 	   54.5708 
    5.5924 	   41.2910 	   23.0000 	   16.0000 	   54.6098 
    5.3635 	   41.3105 	   23.0000 	   16.0000 	   54.6478 
    5.5772 	   41.3310 	   23.0000 	   16.0000 	   54.6888 
    5.7450 	   41.3510 	   23.0000 	   16.0000 	   54.7288 
    5.5161 	   41.3715 	   23.0000 	   16.0000 	   54.7698 
    5.5009 	   41.3920 	   23.0000 	   16.0000 	   54.8108 
    5.6992 	   41.4110 	   23.0000 	   16.0000 	   54.8488 
    5.6229 	   41.4300 	   23.0000 	   16.0000 	   54.8868 
    5.6382 	   41.4505 	   23.0000 	   16.0000 	   54.9278 
    5.6992 	   41.4710 	   23.0000 	   16.0000 	   54.9688 
    5.6687 	   41.4905 	   23.0000 	   16.0000 	   55.0078 
    5.7298 	   41.5110 	   23.0000 	   16.0000 	   55.0488 
    5.6535 	   41.5315 	   23.0000 	   16.0000 	   55.0898 
    5.7908 	   41.5515 	   23.0000 	   16.0000 	   55.1298 
    5.7908 	   41.5710 	   23.0000 	   16.0000 	   55.1688 
    5.6229 	   41.5905 	   23.0000 	   16.0000 	   55.2078 
    5.6992 	   41.6105 	   23.0000 	   16.0000 	   55.2478 
    5.5772 	   41.6315 	   23.0000 	   16.0000 	   55.2898 
    5.5619 	   41.6505 	   23.0000 	   16.0000 	   55.3278 
    5.7603 	   41.6705 	   23.0000 	   16.0000 	   55.3678 
    5.5772 	   41.6910 	   23.0000 	   16.0000 	   55.4089 
    5.6687 	   41.7105 	   23.0000 	   16.0000 	   55.4479 
    5.5009 	   41.7310 	   23.0000 	   16.0000 	   55.4889 
    5.7145 	   41.7505 	   23.0000 	   16.0000 	   55.5279 
    5.7298 	   41.7705 	   23.0000 	   16.0000 	   55.5679 
    5.6687 	   41.7915 	   23.0000 	   16.0000 	   55.6099 
    5.5772 	   41.8160 	   23.0000 	   16.0000 	   55.6589 
    5.7145 	   41.8365 	   23.0000 	   16.0000 	   55.6999 
    5.7603 	   41.8570 	   23.0000 	   16.0000 	   55.7409 
    5.7755 	   41.8765 	   23.0000 	   16.0000 	   55.7799 
    5.6992 	   41.8960 	   23.0000 	   16.0000 	   55.8189 
    5.6687 	   41.9170 	   23.0000 	   16.0000 	   55.8609 
    5.7755 	   41.9345 	   23.0000 	   16.0000 	   55.8959 
    5.6535 	   41.9525 	   23.0000 	   16.0000 	   55.9319 
    5.6229 	   41.9705 	   23.0000 	   16.0000 	   55.9679 
    5.8366 	   41.9890 	   23.0000 	   16.0000 	   56.0049 
    5.7908 	   42.0065 	   23.0000 	   16.0000 	   56.0399 
    5.7755 	   42.0270 	   23.0000 	   16.0000 	   56.0809 
    5.6229 	   42.0485 	   23.0000 	   16.0000 	   56.1239 
    5.7145 	   42.0700 	   23.0000 	   16.0000 	   56.1669 
    5.7145 	   42.0905 	   23.0000 	   16.0000 	   56.2079 
    5.6382 	   42.1105 	   23.0000 	   16.0000 	   56.2479 
    5.7145 	   42.1315 	   23.0000 	   16.0000 	   56.2899 
    5.8061 	   42.1520 	   23.0000 	   16.0000 	   56.3309 
    5.8671 	   42.1725 	   23.0000 	   16.0000 	   56.3719 
    5.5009 	   42.1920 	   23.0000 	   16.0000 	   56.4109 
    5.8061 	   42.2125 	   23.0000 	   16.0000 	   56.4519 
    5.7755 	   42.2325 	   23.0000 	   16.0000 	   56.4919 
    5.7145 	   42.2520 	   23.0000 	   16.0000 	   56.5309 
    5.7908 	   42.2720 	   23.0000 	   16.0000 	   56.5709 
    5.8671 	   42.2915 	   23.0000 	   16.0000 	   56.6099 
    5.8824 	   42.3120 	   23.0000 	   16.0000 	   56.6509 
    5.6535 	   42.3325 	   23.0000 	   16.0000 	   56.6919 
    5.7145 	   42.3515 	   23.0000 	   16.0000 	   56.7299 
    5.8518 	   42.3720 	   23.0000 	   16.0000 	   56.7709 
    5.8671 	   42.3915 	   23.0000 	   16.0000 	   56.8099 
    5.7298 	   42.4120 	   23.0000 	   16.0000 	   56.8509 
    5.8061 	   42.4330 	   23.0000 	   16.0000 	   56.8929 
    5.7755 	   42.4525 	   23.0000 	   16.0000 	   56.9319 
    5.8061 	   42.4735 	   23.0000 	   16.0000 	   56.9739 
    5.8671 	   42.4940 	   23.0000 	   16.0000 	   57.0149 
    5.8671 	   42.5150 	   23.0000 	   16.0000 	   57.0569 
    5.8824 	   42.5345 	   23.0000 	   16.0000 	   57.0959 
    5.9281 	   42.5550 	   23.0000 	   16.0000 	   57.1369 
    5.7450 	   42.5750 	   23.0000 	   16.0000 	   57.1770 
    5.8213 	   42.5970 	   23.0000 	   16.0000 	   57.2210 
    5.9739 	   42.6160 	   23.0000 	   16.0000 	   57.2590 
    5.8976 	   42.6370 	   23.0000 	   16.0000 	   57.3010 
    5.9739 	   42.6575 	   23.0000 	   16.0000 	   57.3420 
    5.8518 	   42.6780 	   23.0000 	   16.0000 	   57.3830 
    5.9892 	   42.6980 	   23.0000 	   16.0000 	   57.4230 
    5.8518 	   42.7185 	   23.0000 	   16.0000 	   57.4640 
    5.9586 	   42.7385 	   23.0000 	   16.0000 	   57.5040 
    5.8061 	   42.7585 	   23.0000 	   16.0000 	   57.5440 
    6.0044 	   42.7790 	   23.0000 	   16.0000 	   57.5850 
    5.8976 	   42.7980 	   23.0000 	   16.0000 	   57.6230 
    5.6992 	   42.8210 	   23.0000 	   16.0000 	   57.6690 
    5.9281 	   42.8410 	   23.0000 	   16.0000 	   57.7090 
    5.9586 	   42.8610 	   23.0000 	   16.0000 	   57.7490 
    5.9892 	   42.8805 	   23.0000 	   16.0000 	   57.7880 
    6.0197 	   42.9015 	   23.0000 	   16.0000 	   57.8300 
    5.9434 	   42.9225 	   23.0000 	   16.0000 	   57.8720 
    5.9434 	   42.9415 	   23.0000 	   16.0000 	   57.9100 
    5.8518 	   42.9610 	   23.0000 	   16.0000 	   57.9490 
    5.7298 	   42.9815 	   23.0000 	   16.0000 	   57.9900 
    5.9129 	   43.0010 	   23.0000 	   16.0000 	   58.0290 
    5.9281 	   43.0215 	   23.0000 	   16.0000 	   58.0700 
    5.8518 	   43.0430 	   23.0000 	   16.0000 	   58.1130 
    5.8671 	   43.0625 	   23.0000 	   16.0000 	   58.1520 
    5.8213 	   43.0820 	   23.0000 	   16.0000 	   58.1910 
    5.8671 	   43.1025 	   23.0000 	   16.0000 	   58.2320 
    5.9281 	   43.1235 	   23.0000 	   16.0000 	   58.2740 
    5.9892 	   43.1435 	   23.0000 	   16.0000 	   58.3140 
    5.6535 	   43.1635 	   23.0000 	   16.0000 	   58.3540 
    5.8976 	   43.1830 	   23.0000 	   16.0000 	   58.3930 
    5.9892 	   43.2035 	   23.0000 	   16.0000 	   58.4340 
    5.8213 	   43.2250 	   23.0000 	   16.0000 	   58.4770 
    5.9434 	   43.2445 	   23.0000 	   16.0000 	   58.5160 
    6.0502 	   43.2640 	   23.0000 	   16.0000 	   58.5550 
    5.9586 	   43.2830 	   23.0000 	   16.0000 	   58.5930 
    5.9892 	   43.3035 	   23.0000 	   16.0000 	   58.6340 
    6.0044 	   43.3230 	   23.0000 	   16.0000 	   58.6730 
    6.0044 	   43.3430 	   23.0000 	   16.0000 	   58.7130 
    6.0349 	   43.3620 	   23.0000 	   16.0000 	   58.7510 
    6.0960 	   43.3825 	   23.0000 	   16.0000 	   58.7920 
    6.0960 	   43.4030 	   23.0000 	   16.0000 	   58.8330 
    5.8366 	   43.4240 	   23.0000 	   16.0000 	   58.8750 
    6.0044 	   43.4440 	   23.0000 	   16.0000 	   58.9151 
    5.9586 	   43.4660 	   23.0000 	   16.0000 	   58.9591 
    5.9892 	   43.4865 	   23.0000 	   16.0000 	   59.0001 
    6.0197 	   43.5070 	   23.0000 	   16.0000 	   59.0411 
    6.0197 	   43.5280 	   23.0000 	   16.0000 	   59.0831 
    5.9586 	   43.5485 	   23.0000 	   16.0000 	   59.1241 
    6.0655 	   43.5690 	   23.0000 	   16.0000 	   59.1651 
    6.0807 	   43.5905 	   23.0000 	   16.0000 	   59.2081 
    5.8061 	   43.6100 	   23.0000 	   16.0000 	   59.2471 
    6.0349 	   43.6300 	   23.0000 	   16.0000 	   59.2871 
    5.9892 	   43.6495 	   23.0000 	   16.0000 	   59.3261 
    6.1875 	   43.6700 	   23.0000 	   16.0000 	   59.3671 
    6.0960 	   43.6900 	   23.0000 	   16.0000 	   59.4071 
    6.0349 	   43.7105 	   23.0000 	   16.0000 	   59.4481 
    5.9739 	   43.7300 	   23.0000 	   16.0000 	   59.4871 
    6.1570 	   43.7495 	   23.0000 	   16.0000 	   59.5261 
    6.1418 	   43.7690 	   23.0000 	   16.0000 	   59.5651 
    6.0502 	   43.7885 	   23.0000 	   16.0000 	   59.6041 
    6.1570 	   43.8155 	   23.0000 	   16.0000 	   59.6581 
    5.9129 	   43.8335 	   23.0000 	   16.0000 	   59.6941 
    6.0502 	   43.8535 	   23.0000 	   16.0000 	   59.7341 
    6.1875 	   43.8735 	   23.0000 	   16.0000 	   59.7741 
    6.1265 	   43.8935 	   23.0000 	   16.0000 	   59.8141 
    6.0655 	   43.9150 	   23.0000 	   16.0000 	   59.8571 
    6.0349 	   43.9355 	   23.0000 	   16.0000 	   59.8981 
    6.2333 	   43.9545 	   23.0000 	   16.0000 	   59.9361 
    6.1112 	   43.9735 	   23.0000 	   16.0000 	   59.9741 
    6.1265 	   43.9940 	   23.0000 	   17.0000 	    0.0151 
    6.1112 	   44.0145 	   23.0000 	   17.0000 	    0.0561 
    6.1112 	   44.0345 	   23.0000 	   17.0000 	    0.0961 
    6.0502 	   44.0565 	   23.0000 	   17.0000 	    0.1401 
    6.1570 	   44.0765 	   23.0000 	   17.0000 	    0.1801 
    6.2638 	   44.0965 	   23.0000 	   17.0000 	    0.2201 
    6.1418 	   44.1155 	   23.0000 	   17.0000 	    0.2581 
    5.9739 	   44.1360 	   23.0000 	   17.0000 	    0.2991 
    6.1418 	   44.1560 	   23.0000 	   17.0000 	    0.3391 
    6.1418 	   44.1765 	   23.0000 	   17.0000 	    0.3801 
    6.2333 	   44.1965 	   23.0000 	   17.0000 	    0.4201 
    6.3249 	   44.2160 	   23.0000 	   17.0000 	    0.4591 
    6.2638 	   44.2355 	   23.0000 	   17.0000 	    0.4981 
    6.2181 	   44.2545 	   23.0000 	   17.0000 	    0.5361 
    6.2791 	   44.2730 	   23.0000 	   17.0000 	    0.5731 
    6.1265 	   44.2925 	   23.0000 	   17.0000 	    0.6121 
    6.1570 	   44.3115 	   23.0000 	   17.0000 	    0.6502 
    6.1723 	   44.3300 	   23.0000 	   17.0000 	    0.6872 
    6.1723 	   44.3485 	   23.0000 	   17.0000 	    0.7242 
    6.3249 	   44.3665 	   23.0000 	   17.0000 	    0.7602 
    5.8366 	   44.3845 	   23.0000 	   17.0000 	    0.7962 
    6.3401 	   44.4025 	   23.0000 	   17.0000 	    0.8322 
    6.2943 	   44.4210 	   23.0000 	   17.0000 	    0.8692 
    6.2486 	   44.4390 	   23.0000 	   17.0000 	    0.9052 
    6.0960 	   44.4575 	   23.0000 	   17.0000 	    0.9422 
    6.3096 	   44.4755 	   23.0000 	   17.0000 	    0.9782 
    6.1875 	   44.4940 	   23.0000 	   17.0000 	    1.0152 
    6.2028 	   44.5115 	   23.0000 	   17.0000 	    1.0502 
    6.2028 	   44.5310 	   23.0000 	   17.0000 	    1.0892 
    6.1875 	   44.5520 	   23.0000 	   17.0000 	    1.1312 
    6.1875 	   44.5715 	   23.0000 	   17.0000 	    1.1702 
    6.2638 	   44.5920 	   23.0000 	   17.0000 	    1.2112 
    6.2486 	   44.6125 	   23.0000 	   17.0000 	    1.2522 
    6.1570 	   44.6325 	   23.0000 	   17.0000 	    1.2922 
    6.3401 	   44.6520 	   23.0000 	   17.0000 	    1.3312 
    6.2333 	   44.6725 	   23.0000 	   17.0000 	    1.3722 
    6.3096 	   44.6930 	   23.0000 	   17.0000 	    1.4132 
    5.9739 	   44.7130 	   23.0000 	   17.0000 	    1.4532 
    6.1723 	   44.7325 	   23.0000 	   17.0000 	    1.4922 
    6.4012 	   44.7525 	   23.0000 	   17.0000 	    1.5322 
    6.2638 	   44.7735 	   23.0000 	   17.0000 	    1.5742 
    6.2028 	   44.7945 	   23.0000 	   17.0000 	    1.6162 
    6.3249 	   44.8155 	   23.0000 	   17.0000 	    1.6582 
    6.2638 	   44.8360 	   23.0000 	   17.0000 	    1.6992 
    6.4775 	   44.8565 	   23.0000 	   17.0000 	    1.7402 
    5.9892 	   44.8770 	   23.0000 	   17.0000 	    1.7812 
    6.3401 	   44.8970 	   23.0000 	   17.0000 	    1.8212 
    6.3401 	   44.9175 	   23.0000 	   17.0000 	    1.8622 
    6.2333 	   44.9380 	   23.0000 	   17.0000 	    1.9032 
    6.2791 	   44.9580 	   23.0000 	   17.0000 	    1.9432 
    6.3859 	   44.9790 	   23.0000 	   17.0000 	    1.9852 
    6.2943 	   45.0000 	   23.0000 	   17.0000 	    2.0272 
    6.3706 	   45.0195 	   23.0000 	   17.0000 	    2.0662 
    6.3554 	   45.0420 	   23.0000 	   17.0000 	    2.1112 
    6.3859 	   45.0620 	   23.0000 	   17.0000 	    2.1512 
    6.2028 	   45.0825 	   23.0000 	   17.0000 	    2.1922 
    6.2791 	   45.1020 	   23.0000 	   17.0000 	    2.2312 
    6.3096 	   45.1225 	   23.0000 	   17.0000 	    2.2722 
    6.3249 	   45.1435 	   23.0000 	   17.0000 	    2.3142 
    6.2943 	   45.1635 	   23.0000 	   17.0000 	    2.3542 
    6.4012 	   45.1835 	   23.0000 	   17.0000 	    2.3943 
    6.2791 	   45.2030 	   23.0000 	   17.0000 	    2.4333 
    6.2791 	   45.2240 	   23.0000 	   17.0000 	    2.4753 
    6.4317 	   45.2440 	   23.0000 	   17.0000 	    2.5153 
    6.4622 	   45.2645 	   23.0000 	   17.0000 	    2.5563 
    6.4317 	   45.2835 	   23.0000 	   17.0000 	    2.5943 
    6.4927 	   45.3040 	   23.0000 	   17.0000 	    2.6353 
    6.3554 	   45.3230 	   23.0000 	   17.0000 	    2.6733 
    6.4622 	   45.3410 	   23.0000 	   17.0000 	    2.7093 
    6.2638 	   45.3620 	   23.0000 	   17.0000 	    2.7503 
    6.4164 	   45.3815 	   23.0000 	   17.0000 	    2.7903 
    6.4012 	   45.3995 	   23.0000 	   17.0000 	    2.8263 
    6.2791 	   45.4175 	   23.0000 	   17.0000 	    2.8623 
    6.3554 	   45.4355 	   23.0000 	   17.0000 	    2.8983 
    6.1875 	   45.4540 	   23.0000 	   17.0000 	    2.9353 
    6.4775 	   45.4720 	   23.0000 	   17.0000 	    2.9713 
    6.3401 	   45.4905 	   23.0000 	   17.0000 	    3.0083 
    6.3706 	   45.5090 	   23.0000 	   17.0000 	    3.0453 
    6.3401 	   45.5290 	   23.0000 	   17.0000 	    3.0853 
    6.5080 	   45.5505 	   23.0000 	   17.0000 	    3.1283 
    6.4164 	   45.5705 	   23.0000 	   17.0000 	    3.1683 
    6.4317 	   45.5915 	   23.0000 	   17.0000 	    3.2103 
    6.3859 	   45.6115 	   23.0000 	   17.0000 	    3.2503 
    6.4469 	   45.6325 	   23.0000 	   17.0000 	    3.2923 
    6.3554 	   45.6530 	   23.0000 	   17.0000 	    3.3333 
    6.4164 	   45.6730 	   23.0000 	   17.0000 	    3.3733 
    6.5537 	   45.6940 	   23.0000 	   17.0000 	    3.4153 
    6.4317 	   45.7140 	   23.0000 	   17.0000 	    3.4553 
    6.4317 	   45.7345 	   23.0000 	   17.0000 	    3.4963 
    6.5385 	   45.7545 	   23.0000 	   17.0000 	    3.5363 
    6.4622 	   45.7755 	   23.0000 	   17.0000 	    3.5783 
    6.1875 	   45.7960 	   23.0000 	   17.0000 	    3.6193 
    6.5537 	   45.8170 	   23.0000 	   17.0000 	    3.6613 
    6.5080 	   45.8380 	   23.0000 	   17.0000 	    3.7033 
    6.4927 	   45.8590 	   23.0000 	   17.0000 	    3.7453 
    6.4775 	   45.8785 	   23.0000 	   17.0000 	    3.7843 
    6.4775 	   45.8985 	   23.0000 	   17.0000 	    3.8243 
    6.4622 	   45.9190 	   23.0000 	   17.0000 	    3.8653 
    6.5232 	   45.9390 	   23.0000 	   17.0000 	    3.9053 
    6.5690 	   45.9595 	   23.0000 	   17.0000 	    3.9463 
    6.5843 	   45.9800 	   23.0000 	   17.0000 	    3.9873 
    6.5385 	   46.0010 	   23.0000 	   17.0000 	    4.0293 
    6.5232 	   46.0215 	   23.0000 	   17.0000 	    4.0703 
    6.5385 	   46.0450 	   23.0000 	   17.0000 	    4.1173 
    6.6453 	   46.0635 	   23.0000 	   17.0000 	    4.1544 
    6.5843 	   46.0835 	   23.0000 	   17.0000 	    4.1944 
    6.6148 	   46.1045 	   23.0000 	   17.0000 	    4.2364 
    6.5080 	   46.1240 	   23.0000 	   17.0000 	    4.2754 
    6.4469 	   46.1430 	   23.0000 	   17.0000 	    4.3134 
    6.4927 	   46.1650 	   23.0000 	   17.0000 	    4.3574 
    6.5690 	   46.1860 	   23.0000 	   17.0000 	    4.3994 
    6.6300 	   46.2065 	   23.0000 	   17.0000 	    4.4404 
    6.6300 	   46.2275 	   23.0000 	   17.0000 	    4.4824 
    6.4927 	   46.2480 	   23.0000 	   17.0000 	    4.5234 
    6.4317 	   46.2690 	   23.0000 	   17.0000 	    4.5654 
    6.6911 	   46.2890 	   23.0000 	   17.0000 	    4.6054 
    6.5537 	   46.3095 	   23.0000 	   17.0000 	    4.6464 
    6.6606 	   46.3305 	   23.0000 	   17.0000 	    4.6884 
    6.5690 	   46.3515 	   23.0000 	   17.0000 	    4.7304 
    6.4775 	   46.3710 	   23.0000 	   17.0000 	    4.7694 
    6.4012 	   46.3900 	   23.0000 	   17.0000 	    4.8074 
    6.6148 	   46.4085 	   23.0000 	   17.0000 	    4.8444 
    6.4317 	   46.4270 	   23.0000 	   17.0000 	    4.8814 
    6.7369 	   46.4455 	   23.0000 	   17.0000 	    4.9184 
    6.6606 	   46.4635 	   23.0000 	   17.0000 	    4.9544 
    6.7521 	   46.4820 	   23.0000 	   17.0000 	    4.9914 
    6.4927 	   46.5000 	   23.0000 	   17.0000 	    5.0274 
    6.6148 	   46.5180 	   23.0000 	   17.0000 	    5.0634 
    6.6758 	   46.5365 	   23.0000 	   17.0000 	    5.1004 
    6.7826 	   46.5550 	   23.0000 	   17.0000 	    5.1374 
    6.5995 	   46.5735 	   23.0000 	   17.0000 	    5.1744 
    6.3249 	   46.5925 	   23.0000 	   17.0000 	    5.2124 
    6.5843 	   46.6125 	   23.0000 	   17.0000 	    5.2524 
    6.6758 	   46.6335 	   23.0000 	   17.0000 	    5.2944 
    6.7369 	   46.6540 	   23.0000 	   17.0000 	    5.3354 
    6.6300 	   46.6735 	   23.0000 	   17.0000 	    5.3744 
    6.6606 	   46.6940 	   23.0000 	   17.0000 	    5.4154 
    6.7674 	   46.7145 	   23.0000 	   17.0000 	    5.4564 
    6.8132 	   46.7345 	   23.0000 	   17.0000 	    5.4964 
    6.5843 	   46.7550 	   23.0000 	   17.0000 	    5.5374 
    6.6606 	   46.7775 	   23.0000 	   17.0000 	    5.5824 
    6.7216 	   46.7985 	   23.0000 	   17.0000 	    5.6244 
    6.6606 	   46.8190 	   23.0000 	   17.0000 	    5.6654 
    6.6148 	   46.8400 	   23.0000 	   17.0000 	    5.7074 
    6.6300 	   46.8605 	   23.0000 	   17.0000 	    5.7484 
    6.7674 	   46.8805 	   23.0000 	   17.0000 	    5.7884 
    6.7369 	   46.9010 	   23.0000 	   17.0000 	    5.8294 
    6.8437 	   46.9210 	   23.0000 	   17.0000 	    5.8694 
    6.7979 	   46.9420 	   23.0000 	   17.0000 	    5.9115 
    6.8589 	   46.9625 	   23.0000 	   17.0000 	    5.9525 
    6.6911 	   46.9830 	   23.0000 	   17.0000 	    5.9935 
    6.8132 	   47.0040 	   23.0000 	   17.0000 	    6.0355 
    6.6911 	   47.0245 	   23.0000 	   17.0000 	    6.0765 
    6.7063 	   47.0465 	   23.0000 	   17.0000 	    6.1205 
    6.8894 	   47.0680 	   23.0000 	   17.0000 	    6.1635 
    6.9657 	   47.0885 	   23.0000 	   17.0000 	    6.2045 
    6.7063 	   47.1090 	   23.0000 	   17.0000 	    6.2455 
    6.7674 	   47.1300 	   23.0000 	   17.0000 	    6.2875 
    6.8894 	   47.1510 	   23.0000 	   17.0000 	    6.3295 
    6.6911 	   47.1715 	   23.0000 	   17.0000 	    6.3705 
    6.4775 	   47.1930 	   23.0000 	   17.0000 	    6.4135 
    6.7979 	   47.2120 	   23.0000 	   17.0000 	    6.4515 
    6.8437 	   47.2300 	   23.0000 	   17.0000 	    6.4875 
    6.6148 	   47.2485 	   23.0000 	   17.0000 	    6.5245 
    6.5232 	   47.2670 	   23.0000 	   17.0000 	    6.5615 
    6.7674 	   47.2855 	   23.0000 	   17.0000 	    6.5985 
    6.7979 	   47.3040 	   23.0000 	   17.0000 	    6.6345 
    6.7979 	   47.3220 	   23.0000 	   17.0000 	    6.6715 
    6.8589 	   47.3405 	   23.0000 	   17.0000 	    6.7085 
    6.9047 	   47.3600 	   23.0000 	   17.0000 	    6.7475 
    6.8132 	   47.3800 	   23.0000 	   17.0000 	    6.7875 
    6.8437 	   47.4000 	   23.0000 	   17.0000 	    6.8275 
    6.8284 	   47.4210 	   23.0000 	   17.0000 	    6.8695 
    6.8132 	   47.4410 	   23.0000 	   17.0000 	    6.9095 
    6.8589 	   47.4600 	   23.0000 	   17.0000 	    6.9475 
    6.5080 	   47.4780 	   23.0000 	   17.0000 	    6.9835 
    6.6758 	   47.4965 	   23.0000 	   17.0000 	    7.0205 
    6.7521 	   47.5150 	   23.0000 	   17.0000 	    7.0575 
    6.7369 	   47.5340 	   23.0000 	   17.0000 	    7.0955 
    6.8284 	   47.5530 	   23.0000 	   17.0000 	    7.1335 
    6.8284 	   47.5715 	   23.0000 	   17.0000 	    7.1705 
    6.7674 	   47.5900 	   23.0000 	   17.0000 	    7.2075 
    7.0573 	   47.6085 	   23.0000 	   17.0000 	    7.2445 
    6.8437 	   47.6265 	   23.0000 	   17.0000 	    7.2805 
    6.8284 	   47.6470 	   23.0000 	   17.0000 	    7.3215 
    6.8437 	   47.6655 	   23.0000 	   17.0000 	    7.3585 
    6.9047 	   47.6835 	   23.0000 	   17.0000 	    7.3945 
    6.8437 	   47.7020 	   23.0000 	   17.0000 	    7.4315 
    6.7674 	   47.7225 	   23.0000 	   17.0000 	    7.4725 
    6.9657 	   47.7435 	   23.0000 	   17.0000 	    7.5145 
    6.8742 	   47.7640 	   23.0000 	   17.0000 	    7.5555 
    6.7979 	   47.7840 	   23.0000 	   17.0000 	    7.5955 
    6.8742 	   47.8045 	   23.0000 	   17.0000 	    7.6366 
    7.0115 	   47.8255 	   23.0000 	   17.0000 	    7.6786 
    6.8894 	   47.8460 	   23.0000 	   17.0000 	    7.7196 
    6.9505 	   47.8660 	   23.0000 	   17.0000 	    7.7596 
    6.9200 	   47.8865 	   23.0000 	   17.0000 	    7.8006 
    6.8742 	   47.9075 	   23.0000 	   17.0000 	    7.8426 
    6.6606 	   47.9280 	   23.0000 	   17.0000 	    7.8836 
    6.9657 	   47.9475 	   23.0000 	   17.0000 	    7.9226 
    6.8742 	   47.9685 	   23.0000 	   17.0000 	    7.9646 
    7.1183 	   47.9895 	   23.0000 	   17.0000 	    8.0066 
    6.8132 	   48.0095 	   23.0000 	   17.0000 	    8.0466 
    7.1183 	   48.0295 	   23.0000 	   17.0000 	    8.0866 
    6.9810 	   48.0520 	   23.0000 	   17.0000 	    8.1316 
    7.0878 	   48.0720 	   23.0000 	   17.0000 	    8.1716 
    7.0878 	   48.0930 	   23.0000 	   17.0000 	    8.2136 
    6.9352 	   48.1140 	   23.0000 	   17.0000 	    8.2556 
    6.9352 	   48.1355 	   23.0000 	   17.0000 	    8.2986 
    7.0573 	   48.1560 	   23.0000 	   17.0000 	    8.3396 
    7.0878 	   48.1775 	   23.0000 	   17.0000 	    8.3826 
    6.9963 	   48.1980 	   23.0000 	   17.0000 	    8.4236 
    7.0573 	   48.2190 	   23.0000 	   17.0000 	    8.4656 
    7.0115 	   48.2400 	   23.0000 	   17.0000 	    8.5076 
    7.1489 	   48.2610 	   23.0000 	   17.0000 	    8.5496 
    7.0726 	   48.2815 	   23.0000 	   17.0000 	    8.5906 
    6.9505 	   48.3030 	   23.0000 	   17.0000 	    8.6336 
    6.9200 	   48.3230 	   23.0000 	   17.0000 	    8.6736 
    7.0573 	   48.3435 	   23.0000 	   17.0000 	    8.7146 
    6.9810 	   48.3640 	   23.0000 	   17.0000 	    8.7556 
    6.9810 	   48.3845 	   23.0000 	   17.0000 	    8.7966 
    7.1336 	   48.4045 	   23.0000 	   17.0000 	    8.8366 
    7.0726 	   48.4250 	   23.0000 	   17.0000 	    8.8776 
    7.1641 	   48.4460 	   23.0000 	   17.0000 	    8.9196 
    7.0573 	   48.4660 	   23.0000 	   17.0000 	    8.9596 
    7.0268 	   48.4870 	   23.0000 	   17.0000 	    9.0016 
    6.9963 	   48.5065 	   23.0000 	   17.0000 	    9.0406 
    6.9810 	   48.5275 	   23.0000 	   17.0000 	    9.0826 
    7.2404 	   48.5475 	   23.0000 	   17.0000 	    9.1226 
    6.9657 	   48.5685 	   23.0000 	   17.0000 	    9.1646 
    7.2251 	   48.5900 	   23.0000 	   17.0000 	    9.2076 
    7.0878 	   48.6085 	   23.0000 	   17.0000 	    9.2446 
    7.0268 	   48.6300 	   23.0000 	   17.0000 	    9.2876 
    7.1183 	   48.6490 	   23.0000 	   17.0000 	    9.3256 
    6.9505 	   48.6675 	   23.0000 	   17.0000 	    9.3626 
    7.1031 	   48.6855 	   23.0000 	   17.0000 	    9.3987 
    6.9963 	   48.7050 	   23.0000 	   17.0000 	    9.4377 
    7.0573 	   48.7255 	   23.0000 	   17.0000 	    9.4787 
    7.0573 	   48.7465 	   23.0000 	   17.0000 	    9.5207 
    7.2099 	   48.7670 	   23.0000 	   17.0000 	    9.5617 
    7.1183 	   48.7880 	   23.0000 	   17.0000 	    9.6037 
    7.1641 	   48.8155 	   23.0000 	   17.0000 	    9.6587 
    7.1489 	   48.8355 	   23.0000 	   17.0000 	    9.6987 
    7.1336 	   48.8565 	   23.0000 	   17.0000 	    9.7407 
    7.2557 	   48.8770 	   23.0000 	   17.0000 	    9.7817 
    7.0726 	   48.8970 	   23.0000 	   17.0000 	    9.8217 
    7.1641 	   48.9170 	   23.0000 	   17.0000 	    9.8617 
    7.2099 	   48.9390 	   23.0000 	   17.0000 	    9.9057 
    7.1489 	   48.9600 	   23.0000 	   17.0000 	    9.9477 
    7.2557 	   48.9805 	   23.0000 	   17.0000 	    9.9887 
    7.3167 	   49.0015 	   23.0000 	   17.0000 	   10.0307 
    7.2251 	   49.0225 	   23.0000 	   17.0000 	   10.0727 
    7.1489 	   49.0450 	   23.0000 	   17.0000 	   10.1177 
    7.0268 	   49.0665 	   23.0000 	   17.0000 	   10.1607 
    7.2099 	   49.0865 	   23.0000 	   17.0000 	   10.2007 
    7.1946 	   49.1080 	   23.0000 	   17.0000 	   10.2437 
    7.3320 	   49.1285 	   23.0000 	   17.0000 	   10.2847 
    7.2099 	   49.1500 	   23.0000 	   17.0000 	   10.3277 
    7.0573 	   49.1705 	   23.0000 	   17.0000 	   10.3687 
    7.2404 	   49.1915 	   23.0000 	   17.0000 	   10.4107 
    7.2862 	   49.2125 	   23.0000 	   17.0000 	   10.4527 
    7.3472 	   49.2330 	   23.0000 	   17.0000 	   10.4937 
    7.3472 	   49.2535 	   23.0000 	   17.0000 	   10.5347 
    7.3014 	   49.2725 	   23.0000 	   17.0000 	   10.5727 
    7.3320 	   49.2930 	   23.0000 	   17.0000 	   10.6137 
    7.2557 	   49.3110 	   23.0000 	   17.0000 	   10.6497 
    7.1946 	   49.3305 	   23.0000 	   17.0000 	   10.6887 
    7.1946 	   49.3510 	   23.0000 	   17.0000 	   10.7297 
    7.2251 	   49.3715 	   23.0000 	   17.0000 	   10.7707 
    7.3777 	   49.3910 	   23.0000 	   17.0000 	   10.8097 
    7.2709 	   49.4120 	   23.0000 	   17.0000 	   10.8517 
    7.2099 	   49.4325 	   23.0000 	   17.0000 	   10.8927 
    7.2557 	   49.4530 	   23.0000 	   17.0000 	   10.9337 
    7.2251 	   49.4740 	   23.0000 	   17.0000 	   10.9757 
    7.3472 	   49.4950 	   23.0000 	   17.0000 	   11.0177 
    7.2251 	   49.5155 	   23.0000 	   17.0000 	   11.0587 
    7.1946 	   49.5365 	   23.0000 	   17.0000 	   11.1007 
    7.2251 	   49.5570 	   23.0000 	   17.0000 	   11.1418 
    7.2862 	   49.5780 	   23.0000 	   17.0000 	   11.1838 
    7.4083 	   49.5985 	   23.0000 	   17.0000 	   11.2248 
    7.2862 	   49.6200 	   23.0000 	   17.0000 	   11.2678 
    7.2557 	   49.6415 	   23.0000 	   17.0000 	   11.3108 
    7.4235 	   49.6625 	   23.0000 	   17.0000 	   11.3528 
    7.3320 	   49.6835 	   23.0000 	   17.0000 	   11.3948 
    7.2557 	   49.7040 	   23.0000 	   17.0000 	   11.4358 
    7.5456 	   49.7235 	   23.0000 	   17.0000 	   11.4748 
    7.4388 	   49.7445 	   23.0000 	   17.0000 	   11.5158 
    7.4998 	   49.7650 	   23.0000 	   17.0000 	   11.5578 
    7.3930 	   49.7845 	   23.0000 	   17.0000 	   11.5968 
    7.3625 	   49.8055 	   23.0000 	   17.0000 	   11.6388 
    7.3930 	   49.8260 	   23.0000 	   17.0000 	   11.6798 
    7.5151 	   49.8475 	   23.0000 	   17.0000 	   11.7228 
    6.9810 	   49.8680 	   23.0000 	   17.0000 	   11.7638 
    7.2251 	   49.8870 	   23.0000 	   17.0000 	   11.8018 
    7.3472 	   49.9060 	   23.0000 	   17.0000 	   11.8398 
    7.4693 	   49.9250 	   23.0000 	   17.0000 	   11.8778 
    7.4235 	   49.9435 	   23.0000 	   17.0000 	   11.9148 
    7.4540 	   49.9625 	   23.0000 	   17.0000 	   11.9528 
    6.9963 	   49.9810 	   23.0000 	   17.0000 	   11.9898 
    7.4235 	   49.9995 	   23.0000 	   17.0000 	   12.0268 
    7.5151 	   50.0185 	   23.0000 	   17.0000 	   12.0648 
    7.3777 	   50.0370 	   23.0000 	   17.0000 	   12.1018 
    7.2251 	   50.0575 	   23.0000 	   17.0000 	   12.1418 
    7.2862 	   50.0765 	   23.0000 	   17.0000 	   12.1798 
    7.4693 	   50.0950 	   23.0000 	   17.0000 	   12.2168 
    7.2099 	   50.1135 	   23.0000 	   17.0000 	   12.2538 
    7.1794 	   50.1320 	   23.0000 	   17.0000 	   12.2908 
    7.4998 	   50.1505 	   23.0000 	   17.0000 	   12.3278 
    7.4388 	   50.1695 	   23.0000 	   17.0000 	   12.3658 
    7.3777 	   50.1880 	   23.0000 	   17.0000 	   12.4028 
    7.5456 	   50.2090 	   23.0000 	   17.0000 	   12.4448 
    7.4693 	   50.2295 	   23.0000 	   17.0000 	   12.4858 
    7.4083 	   50.2500 	   23.0000 	   17.0000 	   12.5268 
    7.3777 	   50.2710 	   23.0000 	   17.0000 	   12.5688 
    7.2557 	   50.2920 	   23.0000 	   17.0000 	   12.6108 
    7.6829 	   50.3130 	   23.0000 	   17.0000 	   12.6528 
    7.5608 	   50.3330 	   23.0000 	   17.0000 	   12.6928 
    7.4998 	   50.3555 	   23.0000 	   17.0000 	   12.7378 
    7.5303 	   50.3765 	   23.0000 	   17.0000 	   12.7798 
    7.5608 	   50.3970 	   23.0000 	   17.0000 	   12.8208 
    7.3777 	   50.4180 	   23.0000 	   17.0000 	   12.8628 
    7.5914 	   50.4380 	   23.0000 	   17.0000 	   12.9029 
    7.5456 	   50.4595 	   23.0000 	   17.0000 	   12.9459 
    7.1794 	   50.4805 	   23.0000 	   17.0000 	   12.9879 
    7.4235 	   50.5010 	   23.0000 	   17.0000 	   13.0289 
    7.1641 	   50.5225 	   23.0000 	   17.0000 	   13.0719 
    7.4693 	   50.5435 	   23.0000 	   17.0000 	   13.1139 
    7.6524 	   50.5640 	   23.0000 	   17.0000 	   13.1549 
    7.6982 	   50.5850 	   23.0000 	   17.0000 	   13.1969 
    7.5608 	   50.6065 	   23.0000 	   17.0000 	   13.2399 
    7.5151 	   50.6275 	   23.0000 	   17.0000 	   13.2819 
    7.5608 	   50.6475 	   23.0000 	   17.0000 	   13.3219 
    7.5608 	   50.6685 	   23.0000 	   17.0000 	   13.3639 
    7.8050 	   50.6890 	   23.0000 	   17.0000 	   13.4049 
    7.5151 	   50.7095 	   23.0000 	   17.0000 	   13.4459 
    7.2709 	   50.7320 	   23.0000 	   17.0000 	   13.4909 
    7.6829 	   50.7520 	   23.0000 	   17.0000 	   13.5309 
    7.6677 	   50.7735 	   23.0000 	   17.0000 	   13.5739 
    7.5608 	   50.7940 	   23.0000 	   17.0000 	   13.6149 
    7.6371 	   50.8155 	   23.0000 	   17.0000 	   13.6579 
    7.7287 	   50.8380 	   23.0000 	   17.0000 	   13.7029 
    7.6677 	   50.8580 	   23.0000 	   17.0000 	   13.7429 
    7.6524 	   50.8780 	   23.0000 	   17.0000 	   13.7829 
    7.5151 	   50.8995 	   23.0000 	   17.0000 	   13.8259 
    7.6982 	   50.9195 	   23.0000 	   17.0000 	   13.8659 
    7.4083 	   50.9415 	   23.0000 	   17.0000 	   13.9099 
    7.6677 	   50.9630 	   23.0000 	   17.0000 	   13.9529 
    7.5608 	   50.9835 	   23.0000 	   17.0000 	   13.9939 
    7.6677 	   51.0045 	   23.0000 	   17.0000 	   14.0359 
    7.6524 	   51.0250 	   23.0000 	   17.0000 	   14.0769 
    7.6677 	   51.0465 	   23.0000 	   17.0000 	   14.1199 
    7.5761 	   51.0665 	   23.0000 	   17.0000 	   14.1599 
    7.7440 	   51.0880 	   23.0000 	   17.0000 	   14.2029 
    7.6066 	   51.1085 	   23.0000 	   17.0000 	   14.2439 
    7.8660 	   51.1285 	   23.0000 	   17.0000 	   14.2839 
    7.6829 	   51.1500 	   23.0000 	   17.0000 	   14.3269 
    7.7745 	   51.1705 	   23.0000 	   17.0000 	   14.3679 
    7.7440 	   51.1925 	   23.0000 	   17.0000 	   14.4119 
    7.6982 	   51.2140 	   23.0000 	   17.0000 	   14.4549 
    7.7592 	   51.2345 	   23.0000 	   17.0000 	   14.4959 
    7.6371 	   51.2545 	   23.0000 	   17.0000 	   14.5359 
    7.7134 	   51.2760 	   23.0000 	   17.0000 	   14.5789 
    7.7440 	   51.2960 	   23.0000 	   17.0000 	   14.6189 
    7.6677 	   51.3170 	   23.0000 	   17.0000 	   14.6610 
    7.7592 	   51.3380 	   23.0000 	   17.0000 	   14.7030 
    7.7440 	   51.3585 	   23.0000 	   17.0000 	   14.7440 
    7.8202 	   51.3790 	   23.0000 	   17.0000 	   14.7850 
    7.7897 	   51.3995 	   23.0000 	   17.0000 	   14.8260 
    7.7592 	   51.4200 	   23.0000 	   17.0000 	   14.8670 
    7.8965 	   51.4410 	   23.0000 	   17.0000 	   14.9090 
    7.9118 	   51.4615 	   23.0000 	   17.0000 	   14.9500 
    7.6066 	   51.4825 	   23.0000 	   17.0000 	   14.9920 
    7.7440 	   51.5045 	   23.0000 	   17.0000 	   15.0360 
    7.7592 	   51.5255 	   23.0000 	   17.0000 	   15.0780 
    7.9271 	   51.5460 	   23.0000 	   17.0000 	   15.1190 
    7.7440 	   51.5675 	   23.0000 	   17.0000 	   15.1620 
    7.7745 	   51.5885 	   23.0000 	   17.0000 	   15.2040 
    7.6982 	   51.6095 	   23.0000 	   17.0000 	   15.2460 
    7.8050 	   51.6300 	   23.0000 	   17.0000 	   15.2870 
    7.8355 	   51.6510 	   23.0000 	   17.0000 	   15.3290 
    7.8202 	   51.6720 	   23.0000 	   17.0000 	   15.3710 
    7.8202 	   51.6935 	   23.0000 	   17.0000 	   15.4140 
    7.7745 	   51.7150 	   23.0000 	   17.0000 	   15.4570 
    7.8965 	   51.7350 	   23.0000 	   17.0000 	   15.4970 
    7.8508 	   51.7550 	   23.0000 	   17.0000 	   15.5370 
    7.8050 	   51.7770 	   23.0000 	   17.0000 	   15.5810 
    7.8050 	   51.7975 	   23.0000 	   17.0000 	   15.6220 
    7.9271 	   51.8190 	   23.0000 	   17.0000 	   15.6650 
    8.0034 	   51.8395 	   23.0000 	   17.0000 	   15.7060 
    7.7134 	   51.8610 	   23.0000 	   17.0000 	   15.7490 
    7.8355 	   51.8830 	   23.0000 	   17.0000 	   15.7930 
    7.8355 	   51.9030 	   23.0000 	   17.0000 	   15.8330 
    8.0186 	   51.9240 	   23.0000 	   17.0000 	   15.8750 
    7.9271 	   51.9440 	   23.0000 	   17.0000 	   15.9150 
    7.8508 	   51.9625 	   23.0000 	   17.0000 	   15.9520 
    7.8813 	   51.9810 	   23.0000 	   17.0000 	   15.9890 
    7.8813 	   52.0005 	   23.0000 	   17.0000 	   16.0280 
    7.9271 	   52.0215 	   23.0000 	   17.0000 	   16.0700 
    7.8660 	   52.0445 	   23.0000 	   17.0000 	   16.1160 
    7.9271 	   52.0655 	   23.0000 	   17.0000 	   16.1580 
    8.1254 	   52.0865 	   23.0000 	   17.0000 	   16.2000 
    8.0491 	   52.1075 	   23.0000 	   17.0000 	   16.2420 
    7.7592 	   52.1285 	   23.0000 	   17.0000 	   16.2840 
    7.9881 	   52.1500 	   23.0000 	   17.0000 	   16.3270 
    7.9728 	   52.1710 	   23.0000 	   17.0000 	   16.3690 
    7.9576 	   52.1930 	   23.0000 	   17.0000 	   16.4131 
    7.6371 	   52.2140 	   23.0000 	   17.0000 	   16.4551 
    8.0034 	   52.2345 	   23.0000 	   17.0000 	   16.4961 
    8.0797 	   52.2560 	   23.0000 	   17.0000 	   16.5391 
    7.9881 	   52.2760 	   23.0000 	   17.0000 	   16.5791 
    7.9576 	   52.2960 	   23.0000 	   17.0000 	   16.6191 
    7.8813 	   52.3175 	   23.0000 	   17.0000 	   16.6621 
    7.9881 	   52.3380 	   23.0000 	   17.0000 	   16.7031 
    8.1559 	   52.3560 	   23.0000 	   17.0000 	   16.7391 
    8.0797 	   52.3755 	   23.0000 	   17.0000 	   16.7781 
    8.0491 	   52.3960 	   23.0000 	   17.0000 	   16.8191 
    8.1865 	   52.4165 	   23.0000 	   17.0000 	   16.8601 
    8.0491 	   52.4370 	   23.0000 	   17.0000 	   16.9011 
    8.1254 	   52.4590 	   23.0000 	   17.0000 	   16.9451 
    8.0644 	   52.4795 	   23.0000 	   17.0000 	   16.9861 
    8.1254 	   52.5010 	   23.0000 	   17.0000 	   17.0291 
    8.1712 	   52.5215 	   23.0000 	   17.0000 	   17.0701 
    8.1559 	   52.5425 	   23.0000 	   17.0000 	   17.1121 
    8.1254 	   52.5635 	   23.0000 	   17.0000 	   17.1541 
    8.0949 	   52.5840 	   23.0000 	   17.0000 	   17.1951 
    8.1254 	   52.6045 	   23.0000 	   17.0000 	   17.2361 
    8.1254 	   52.6250 	   23.0000 	   17.0000 	   17.2771 
    8.0797 	   52.6475 	   23.0000 	   17.0000 	   17.3221 
    8.1712 	   52.6680 	   23.0000 	   17.0000 	   17.3631 
    8.0797 	   52.6900 	   23.0000 	   17.0000 	   17.4071 
    7.8508 	   52.7115 	   23.0000 	   17.0000 	   17.4501 
    8.2475 	   52.7315 	   23.0000 	   17.0000 	   17.4901 
    8.1102 	   52.7515 	   23.0000 	   17.0000 	   17.5301 
    8.0491 	   52.7735 	   23.0000 	   17.0000 	   17.5741 
    8.1102 	   52.7935 	   23.0000 	   17.0000 	   17.6141 
    8.2780 	   52.8155 	   23.0000 	   17.0000 	   17.6581 
    8.0949 	   52.8370 	   23.0000 	   17.0000 	   17.7011 
    8.1102 	   52.8585 	   23.0000 	   17.0000 	   17.7441 
    8.1865 	   52.8795 	   23.0000 	   17.0000 	   17.7861 
    8.2017 	   52.9005 	   23.0000 	   17.0000 	   17.8281 
    8.2322 	   52.9210 	   23.0000 	   17.0000 	   17.8691 
    8.1102 	   52.9425 	   23.0000 	   17.0000 	   17.9121 
    8.3238 	   52.9645 	   23.0000 	   17.0000 	   17.9561 
    8.2933 	   52.9850 	   23.0000 	   17.0000 	   17.9971 
    8.1407 	   53.0055 	   23.0000 	   17.0000 	   18.0381 
    8.2017 	   53.0275 	   23.0000 	   17.0000 	   18.0821 
    8.1407 	   53.0510 	   23.0000 	   17.0000 	   18.1292 
    8.2017 	   53.0705 	   23.0000 	   17.0000 	   18.1682 
    8.2017 	   53.0915 	   23.0000 	   17.0000 	   18.2102 
    8.3238 	   53.1120 	   23.0000 	   17.0000 	   18.2512 
    8.2780 	   53.1335 	   23.0000 	   17.0000 	   18.2942 
    8.3391 	   53.1540 	   23.0000 	   17.0000 	   18.3352 
    8.2170 	   53.1745 	   23.0000 	   17.0000 	   18.3762 
    8.2780 	   53.1950 	   23.0000 	   17.0000 	   18.4172 
    8.3238 	   53.2155 	   23.0000 	   17.0000 	   18.4582 
    8.2475 	   53.2355 	   23.0000 	   17.0000 	   18.4982 
    8.3238 	   53.2560 	   23.0000 	   17.0000 	   18.5392 
    8.2475 	   53.2765 	   23.0000 	   17.0000 	   18.5802 
    8.0644 	   53.2975 	   23.0000 	   17.0000 	   18.6222 
    8.3848 	   53.3195 	   23.0000 	   17.0000 	   18.6662 
    8.2170 	   53.3405 	   23.0000 	   17.0000 	   18.7082 
    8.3696 	   53.3615 	   23.0000 	   17.0000 	   18.7502 
    8.3543 	   53.3820 	   23.0000 	   17.0000 	   18.7912 
    8.1559 	   53.4025 	   23.0000 	   17.0000 	   18.8322 
    8.2933 	   53.4235 	   23.0000 	   17.0000 	   18.8742 
    8.3696 	   53.4445 	   23.0000 	   17.0000 	   18.9162 
    8.4611 	   53.4655 	   23.0000 	   17.0000 	   18.9582 
    8.0339 	   53.4870 	   23.0000 	   17.0000 	   19.0012 
    8.4459 	   53.5095 	   23.0000 	   17.0000 	   19.0462 
    8.2933 	   53.5300 	   23.0000 	   17.0000 	   19.0872 
    8.4001 	   53.5520 	   23.0000 	   17.0000 	   19.1312 
    8.2933 	   53.5725 	   23.0000 	   17.0000 	   19.1722 
    8.3238 	   53.5935 	   23.0000 	   17.0000 	   19.2142 
    8.4459 	   53.6145 	   23.0000 	   17.0000 	   19.2562 
    8.3085 	   53.6355 	   23.0000 	   17.0000 	   19.2982 
    8.1559 	   53.6560 	   23.0000 	   17.0000 	   19.3392 
    8.2475 	   53.6770 	   23.0000 	   17.0000 	   19.3812 
    8.4001 	   53.6980 	   23.0000 	   17.0000 	   19.4232 
    8.5527 	   53.7185 	   23.0000 	   17.0000 	   19.4642 
    8.4916 	   53.7390 	   23.0000 	   17.0000 	   19.5052 
    8.3391 	   53.7595 	   23.0000 	   17.0000 	   19.5462 
    8.3085 	   53.7810 	   23.0000 	   17.0000 	   19.5892 
    8.5222 	   53.8025 	   23.0000 	   17.0000 	   19.6322 
    8.5679 	   53.8235 	   23.0000 	   17.0000 	   19.6742 
    8.4764 	   53.8445 	   23.0000 	   17.0000 	   19.7162 
    8.4306 	   53.8655 	   23.0000 	   17.0000 	   19.7582 
    8.2780 	   53.8860 	   23.0000 	   17.0000 	   19.7992 
    8.5985 	   53.9065 	   23.0000 	   17.0000 	   19.8402 
    8.5222 	   53.9275 	   23.0000 	   17.0000 	   19.8823 
    8.4916 	   53.9495 	   23.0000 	   17.0000 	   19.9263 
    8.2475 	   53.9710 	   23.0000 	   17.0000 	   19.9693 
    8.3391 	   53.9905 	   23.0000 	   17.0000 	   20.0083 
    8.5527 	   54.0100 	   23.0000 	   17.0000 	   20.0473 
    8.4001 	   54.0305 	   23.0000 	   17.0000 	   20.0883 
    8.5222 	   54.0545 	   23.0000 	   17.0000 	   20.1363 
    8.3543 	   54.0755 	   23.0000 	   17.0000 	   20.1783 
    8.7053 	   54.0955 	   23.0000 	   17.0000 	   20.2183 
    8.4001 	   54.1180 	   23.0000 	   17.0000 	   20.2633 
    8.5679 	   54.1420 	   23.0000 	   17.0000 	   20.3113 
    8.2475 	   54.1625 	   23.0000 	   17.0000 	   20.3523 
    8.4459 	   54.1835 	   23.0000 	   17.0000 	   20.3943 
    8.5679 	   54.2050 	   23.0000 	   17.0000 	   20.4373 
    8.5679 	   54.2260 	   23.0000 	   17.0000 	   20.4793 
    8.5069 	   54.2480 	   23.0000 	   17.0000 	   20.5233 
    8.5222 	   54.2695 	   23.0000 	   17.0000 	   20.5663 
    8.5985 	   54.2890 	   23.0000 	   17.0000 	   20.6053 
    8.7053 	   54.3105 	   23.0000 	   17.0000 	   20.6483 
    8.4306 	   54.3315 	   23.0000 	   17.0000 	   20.6903 
    8.5832 	   54.3525 	   23.0000 	   17.0000 	   20.7323 
    8.4764 	   54.3730 	   23.0000 	   17.0000 	   20.7733 
    8.5832 	   54.3935 	   23.0000 	   17.0000 	   20.8143 
    8.6137 	   54.4160 	   23.0000 	   17.0000 	   20.8593 
    8.5222 	   54.4360 	   23.0000 	   17.0000 	   20.8993 
    8.5832 	   54.4570 	   23.0000 	   17.0000 	   20.9413 
    8.6290 	   54.4775 	   23.0000 	   17.0000 	   20.9823 
    8.7816 	   54.4985 	   23.0000 	   17.0000 	   21.0243 
    8.7205 	   54.5205 	   23.0000 	   17.0000 	   21.0683 
    8.6137 	   54.5415 	   23.0000 	   17.0000 	   21.1103 
    8.7053 	   54.5615 	   23.0000 	   17.0000 	   21.1503 
    8.6748 	   54.5830 	   23.0000 	   17.0000 	   21.1933 
    8.7053 	   54.6035 	   23.0000 	   17.0000 	   21.2343 
    8.5832 	   54.6235 	   23.0000 	   17.0000 	   21.2743 
    8.6595 	   54.6450 	   23.0000 	   17.0000 	   21.3173 
    8.7053 	   54.6660 	   23.0000 	   17.0000 	   21.3593 
    8.5222 	   54.6870 	   23.0000 	   17.0000 	   21.4013 
    8.5832 	   54.7065 	   23.0000 	   17.0000 	   21.4403 
    8.9036 	   54.7290 	   23.0000 	   17.0000 	   21.4853 
    8.7358 	   54.7505 	   23.0000 	   17.0000 	   21.5283 
    8.6595 	   54.7735 	   23.0000 	   17.0000 	   21.5743 
    8.7510 	   54.7950 	   23.0000 	   17.0000 	   21.6173 
    8.7358 	   54.8165 	   23.0000 	   17.0000 	   21.6604 
    8.7053 	   54.8375 	   23.0000 	   17.0000 	   21.7024 
    8.9036 	   54.8585 	   23.0000 	   17.0000 	   21.7444 
    8.7968 	   54.8790 	   23.0000 	   17.0000 	   21.7854 
    8.8579 	   54.9000 	   23.0000 	   17.0000 	   21.8274 
    8.7358 	   54.9205 	   23.0000 	   17.0000 	   21.8684 
    8.7968 	   54.9410 	   23.0000 	   17.0000 	   21.9094 
    8.9952 	   54.9620 	   23.0000 	   17.0000 	   21.9514 
    8.7816 	   54.9830 	   23.0000 	   17.0000 	   21.9934 
    8.8273 	   55.0040 	   23.0000 	   17.0000 	   22.0354 
    8.7968 	   55.0245 	   23.0000 	   17.0000 	   22.0764 
    8.6137 	   55.0470 	   23.0000 	   17.0000 	   22.1214 
    8.7358 	   55.0675 	   23.0000 	   17.0000 	   22.1624 
    8.7816 	   55.0875 	   23.0000 	   17.0000 	   22.2024 
    8.8273 	   55.1085 	   23.0000 	   17.0000 	   22.2444 
    8.9036 	   55.1290 	   23.0000 	   17.0000 	   22.2854 
    8.7358 	   55.1495 	   23.0000 	   17.0000 	   22.3264 
    8.7663 	   55.1705 	   23.0000 	   17.0000 	   22.3684 
    8.9799 	   55.1920 	   23.0000 	   17.0000 	   22.4114 
    8.8426 	   55.2135 	   23.0000 	   17.0000 	   22.4544 
    8.8731 	   55.2340 	   23.0000 	   17.0000 	   22.4954 
    8.8426 	   55.2550 	   23.0000 	   17.0000 	   22.5374 
    8.7358 	   55.2755 	   23.0000 	   17.0000 	   22.5784 
    8.8579 	   55.2960 	   23.0000 	   17.0000 	   22.6194 
    8.8579 	   55.3175 	   23.0000 	   17.0000 	   22.6624 
    8.9799 	   55.3380 	   23.0000 	   17.0000 	   22.7034 
    8.8273 	   55.3585 	   23.0000 	   17.0000 	   22.7444 
    8.8426 	   55.3790 	   23.0000 	   17.0000 	   22.7854 
    8.7968 	   55.4010 	   23.0000 	   17.0000 	   22.8294 
    8.8731 	   55.4215 	   23.0000 	   17.0000 	   22.8704 
    9.0257 	   55.4430 	   23.0000 	   17.0000 	   22.9134 
    8.8579 	   55.4655 	   23.0000 	   17.0000 	   22.9584 
    8.7510 	   55.4875 	   23.0000 	   17.0000 	   23.0024 
    9.0257 	   55.5095 	   23.0000 	   17.0000 	   23.0464 
    8.9799 	   55.5305 	   23.0000 	   17.0000 	   23.0884 
    8.9189 	   55.5515 	   23.0000 	   17.0000 	   23.1304 
    8.8731 	   55.5730 	   23.0000 	   17.0000 	   23.1734 
    9.0562 	   55.5935 	   23.0000 	   17.0000 	   23.2144 
    8.9189 	   55.6155 	   23.0000 	   17.0000 	   23.2584 
    8.8273 	   55.6365 	   23.0000 	   17.0000 	   23.3004 
    9.0410 	   55.6575 	   23.0000 	   17.0000 	   23.3424 
    9.1783 	   55.6790 	   23.0000 	   17.0000 	   23.3855 
    8.9952 	   55.6990 	   23.0000 	   17.0000 	   23.4255 
    9.0105 	   55.7200 	   23.0000 	   17.0000 	   23.4675 
    9.1630 	   55.7410 	   23.0000 	   17.0000 	   23.5095 
    8.9036 	   55.7600 	   23.0000 	   17.0000 	   23.5475 
    8.9952 	   55.7785 	   23.0000 	   17.0000 	   23.5845 
    8.8579 	   55.7985 	   23.0000 	   17.0000 	   23.6245 
    9.0562 	   55.8195 	   23.0000 	   17.0000 	   23.6665 
    9.1173 	   55.8400 	   23.0000 	   17.0000 	   23.7075 
    9.1173 	   55.8590 	   23.0000 	   17.0000 	   23.7455 
    8.9189 	   55.8805 	   23.0000 	   17.0000 	   23.7885 
    9.1325 	   55.8990 	   23.0000 	   17.0000 	   23.8255 
    9.0105 	   55.9175 	   23.0000 	   17.0000 	   23.8625 
    9.1783 	   55.9365 	   23.0000 	   17.0000 	   23.9005 
    9.1020 	   55.9555 	   23.0000 	   17.0000 	   23.9385 
    9.1630 	   55.9750 	   23.0000 	   17.0000 	   23.9775 
    9.0105 	   55.9960 	   23.0000 	   17.0000 	   24.0195 
    9.0410 	   56.0160 	   23.0000 	   17.0000 	   24.0595 
    9.2241 	   56.0380 	   23.0000 	   17.0000 	   24.1035 
    9.0562 	   56.0600 	   23.0000 	   17.0000 	   24.1475 
    9.0257 	   56.0830 	   23.0000 	   17.0000 	   24.1935 
    9.1478 	   56.1055 	   23.0000 	   17.0000 	   24.2385 
    9.1020 	   56.1255 	   23.0000 	   17.0000 	   24.2785 
    9.2088 	   56.1465 	   23.0000 	   17.0000 	   24.3205 
    9.2546 	   56.1685 	   23.0000 	   17.0000 	   24.3645 
    9.2241 	   56.1880 	   23.0000 	   17.0000 	   24.4035 
    9.0257 	   56.2075 	   23.0000 	   17.0000 	   24.4425 
    9.1325 	   56.2285 	   23.0000 	   17.0000 	   24.4845 
    9.2088 	   56.2475 	   23.0000 	   17.0000 	   24.5225 
    9.1478 	   56.2665 	   23.0000 	   17.0000 	   24.5605 
    9.3309 	   56.2865 	   23.0000 	   17.0000 	   24.6005 
    9.1020 	   56.3085 	   23.0000 	   17.0000 	   24.6445 
    9.0715 	   56.3290 	   23.0000 	   17.0000 	   24.6855 
    9.2088 	   56.3505 	   23.0000 	   17.0000 	   24.7285 
    9.2241 	   56.3710 	   23.0000 	   17.0000 	   24.7695 
    9.3767 	   56.3925 	   23.0000 	   17.0000 	   24.8125 
    9.2088 	   56.4145 	   23.0000 	   17.0000 	   24.8565 
    9.1020 	   56.4370 	   23.0000 	   17.0000 	   24.9015 
    9.2241 	   56.4585 	   23.0000 	   17.0000 	   24.9445 
    9.2393 	   56.4795 	   23.0000 	   17.0000 	   24.9865 
    9.1325 	   56.5015 	   23.0000 	   17.0000 	   25.0305 
    9.3309 	   56.5225 	   23.0000 	   17.0000 	   25.0725 
    9.2088 	   56.5445 	   23.0000 	   17.0000 	   25.1166 
    9.2699 	   56.5660 	   23.0000 	   17.0000 	   25.1596 
    9.0715 	   56.5870 	   23.0000 	   17.0000 	   25.2016 
    9.4072 	   56.6080 	   23.0000 	   17.0000 	   25.2436 
    9.3614 	   56.6295 	   23.0000 	   17.0000 	   25.2866 
    9.4224 	   56.6520 	   23.0000 	   17.0000 	   25.3316 
    9.2546 	   56.6735 	   23.0000 	   17.0000 	   25.3746 
    9.2851 	   56.6950 	   23.0000 	   17.0000 	   25.4176 
    9.3004 	   56.7165 	   23.0000 	   17.0000 	   25.4606 
    9.3004 	   56.7385 	   23.0000 	   17.0000 	   25.5046 
    9.3309 	   56.7605 	   23.0000 	   17.0000 	   25.5486 
    9.3919 	   56.7810 	   23.0000 	   17.0000 	   25.5896 
    9.4072 	   56.8030 	   23.0000 	   17.0000 	   25.6336 
    9.3309 	   56.8240 	   23.0000 	   17.0000 	   25.6756 
    9.3004 	   56.8455 	   23.0000 	   17.0000 	   25.7186 
    9.2546 	   56.8675 	   23.0000 	   17.0000 	   25.7626 
    9.1630 	   56.8895 	   23.0000 	   17.0000 	   25.8066 
    9.4377 	   56.9100 	   23.0000 	   17.0000 	   25.8476 
    9.5293 	   56.9310 	   23.0000 	   17.0000 	   25.8896 
    9.3919 	   56.9530 	   23.0000 	   17.0000 	   25.9336 
    9.5598 	   56.9745 	   23.0000 	   17.0000 	   25.9766 
    9.4987 	   56.9955 	   23.0000 	   17.0000 	   26.0186 
    9.4224 	   57.0175 	   23.0000 	   17.0000 	   26.0626 
    9.4987 	   57.0380 	   23.0000 	   17.0000 	   26.1036 
    9.4987 	   57.0600 	   23.0000 	   17.0000 	   26.1476 
    9.4224 	   57.0825 	   23.0000 	   17.0000 	   26.1926 
    9.5750 	   57.1040 	   23.0000 	   17.0000 	   26.2356 
    9.5598 	   57.1250 	   23.0000 	   17.0000 	   26.2776 
    9.4224 	   57.1460 	   23.0000 	   17.0000 	   26.3196 
    9.5293 	   57.1670 	   23.0000 	   17.0000 	   26.3616 
    9.2546 	   57.1880 	   23.0000 	   17.0000 	   26.4036 
    9.4682 	   57.2090 	   23.0000 	   17.0000 	   26.4456 
    9.4987 	   57.2300 	   23.0000 	   17.0000 	   26.4876 
    9.4072 	   57.2515 	   23.0000 	   17.0000 	   26.5306 
    9.4377 	   57.2730 	   23.0000 	   17.0000 	   26.5736 
    9.4530 	   57.2945 	   23.0000 	   17.0000 	   26.6166 
    9.4224 	   57.3170 	   23.0000 	   17.0000 	   26.6616 
    9.5750 	   57.3375 	   23.0000 	   17.0000 	   26.7026 
    9.3919 	   57.3590 	   23.0000 	   17.0000 	   26.7456 
    9.6666 	   57.3795 	   23.0000 	   17.0000 	   26.7866 
    9.6208 	   57.4010 	   23.0000 	   17.0000 	   26.8296 
    9.5445 	   57.4245 	   23.0000 	   17.0000 	   26.8757 
    9.6056 	   57.4460 	   23.0000 	   17.0000 	   26.9197 
    9.6513 	   57.4670 	   23.0000 	   17.0000 	   26.9617 
    9.6818 	   57.4890 	   23.0000 	   17.0000 	   27.0057 
    9.6208 	   57.5095 	   23.0000 	   17.0000 	   27.0467 
    9.6818 	   57.5300 	   23.0000 	   17.0000 	   27.0877 
    9.5750 	   57.5515 	   23.0000 	   17.0000 	   27.1307 
    9.5750 	   57.5725 	   23.0000 	   17.0000 	   27.1727 
    9.6208 	   57.5930 	   23.0000 	   17.0000 	   27.2137 
    9.6208 	   57.6150 	   23.0000 	   17.0000 	   27.2577 
    9.5903 	   57.6365 	   23.0000 	   17.0000 	   27.3007 
    9.7124 	   57.6570 	   23.0000 	   17.0000 	   27.3417 
    9.7124 	   57.6780 	   23.0000 	   17.0000 	   27.3837 
    9.4987 	   57.6995 	   23.0000 	   17.0000 	   27.4267 
    9.5445 	   57.7205 	   23.0000 	   17.0000 	   27.4687 
    9.7429 	   57.7420 	   23.0000 	   17.0000 	   27.5117 
    9.6056 	   57.7635 	   23.0000 	   17.0000 	   27.5547 
    9.7581 	   57.7850 	   23.0000 	   17.0000 	   27.5977 
    9.7887 	   57.8060 	   23.0000 	   17.0000 	   27.6397 
    9.6361 	   57.8270 	   23.0000 	   17.0000 	   27.6817 
    9.5293 	   57.8485 	   23.0000 	   17.0000 	   27.7247 
    9.7124 	   57.8675 	   23.0000 	   17.0000 	   27.7627 
    9.5293 	   57.8865 	   23.0000 	   17.0000 	   27.8007 
    9.7276 	   57.9065 	   23.0000 	   17.0000 	   27.8407 
    9.8497 	   57.9260 	   23.0000 	   17.0000 	   27.8797 
    9.6818 	   57.9450 	   23.0000 	   17.0000 	   27.9177 
    9.8039 	   57.9680 	   23.0000 	   17.0000 	   27.9637 
    9.7276 	   57.9895 	   23.0000 	   17.0000 	   28.0067 
    9.7276 	   58.0105 	   23.0000 	   17.0000 	   28.0487 
    9.8192 	   58.0330 	   23.0000 	   17.0000 	   28.0937 
    9.8192 	   58.0560 	   23.0000 	   17.0000 	   28.1397 
    9.6208 	   58.0780 	   23.0000 	   17.0000 	   28.1837 
    9.7734 	   58.0995 	   23.0000 	   17.0000 	   28.2267 
    9.8802 	   58.1200 	   23.0000 	   17.0000 	   28.2677 
    9.6818 	   58.1410 	   23.0000 	   17.0000 	   28.3097 
   10.0175 	   58.1630 	   23.0000 	   17.0000 	   28.3537 
    9.7124 	   58.1840 	   23.0000 	   17.0000 	   28.3957 
   10.0175 	   58.2325 	   23.0000 	   17.0000 	   28.4927 
    9.9107 	   58.2550 	   23.0000 	   17.0000 	   28.5377 
    9.8497 	   58.2750 	   23.0000 	   17.0000 	   28.5777 
   10.0938 	   58.2950 	   23.0000 	   17.0000 	   28.6178 
    9.8192 	   58.3140 	   23.0000 	   17.0000 	   28.6558 
    9.9870 	   58.3355 	   23.0000 	   17.0000 	   28.6988 
   10.0481 	   58.3555 	   23.0000 	   17.0000 	   28.7388 
   10.1091 	   58.3745 	   23.0000 	   17.0000 	   28.7768 
    9.9413 	   58.3945 	   23.0000 	   17.0000 	   28.8168 
    9.9260 	   58.4135 	   23.0000 	   17.0000 	   28.8548 
   10.0023 	   58.4330 	   23.0000 	   17.0000 	   28.8938 
    9.8497 	   58.4525 	   23.0000 	   17.0000 	   28.9328 
    9.9413 	   58.4715 	   23.0000 	   17.0000 	   28.9708 
    9.8192 	   58.4910 	   23.0000 	   17.0000 	   29.0098 
    9.9718 	   58.5105 	   23.0000 	   17.0000 	   29.0488 
   10.0175 	   58.5295 	   23.0000 	   17.0000 	   29.0868 
   10.0786 	   58.5500 	   23.0000 	   17.0000 	   29.1268 
   10.0328 	   58.5705 	   23.0000 	   17.0000 	   29.1688 
   10.0786 	   58.5920 	   23.0000 	   17.0000 	   29.2118 
    9.9107 	   58.6135 	   23.0000 	   17.0000 	   29.2548 
    9.9107 	   58.6350 	   23.0000 	   17.0000 	   29.2978 
   10.1244 	   58.6560 	   23.0000 	   17.0000 	   29.3398 
   10.0023 	   58.6770 	   23.0000 	   17.0000 	   29.3818 
    9.9870 	   58.6990 	   23.0000 	   17.0000 	   29.4258 
   10.0023 	   58.7210 	   23.0000 	   17.0000 	   29.4698 
    9.9870 	   58.7410 	   23.0000 	   17.0000 	   29.5098 
   10.0023 	   58.7630 	   23.0000 	   17.0000 	   29.5538 
   10.1091 	   58.7835 	   23.0000 	   17.0000 	   29.5948 
   10.2464 	   58.8060 	   23.0000 	   17.0000 	   29.6388 
    9.9870 	   58.8280 	   23.0000 	   17.0000 	   29.6828 
   10.1091 	   58.8515 	   23.0000 	   17.0000 	   29.7298 
   10.0175 	   58.8740 	   23.0000 	   17.0000 	   29.7748 
   10.0023 	   58.8945 	   23.0000 	   17.0000 	   29.8158 
   10.0633 	   58.9160 	   23.0000 	   17.0000 	   29.8588 
    9.9870 	   58.9385 	   23.0000 	   17.0000 	   29.9038 
   10.2007 	   58.9600 	   23.0000 	   17.0000 	   29.9468 
   10.1549 	   58.9815 	   23.0000 	   17.0000 	   29.9898 
    9.7734 	   59.0035 	   23.0000 	   17.0000 	   30.0338 
   10.0938 	   59.0255 	   23.0000 	   17.0000 	   30.0778 
   10.1244 	   59.0475 	   23.0000 	   17.0000 	   30.1218 
   10.1244 	   59.0695 	   23.0000 	   17.0000 	   30.1658 
   10.2007 	   59.0895 	   23.0000 	   17.0000 	   30.2058 
   10.1091 	   59.1110 	   23.0000 	   17.0000 	   30.2488 
   10.2159 	   59.1320 	   23.0000 	   17.0000 	   30.2908 
   10.3227 	   59.1545 	   23.0000 	   17.0000 	   30.3358 
   10.1244 	   59.1755 	   23.0000 	   17.0000 	   30.3779 
   10.2770 	   59.1950 	   23.0000 	   17.0000 	   30.4169 
   10.1549 	   59.2145 	   23.0000 	   17.0000 	   30.4559 
   10.1854 	   59.2335 	   23.0000 	   17.0000 	   30.4939 
   10.2159 	   59.2530 	   23.0000 	   17.0000 	   30.5329 
   10.1244 	   59.2740 	   23.0000 	   17.0000 	   30.5749 
   10.2464 	   59.2945 	   23.0000 	   17.0000 	   30.6159 
   10.2617 	   59.3135 	   23.0000 	   17.0000 	   30.6539 
   10.1549 	   59.3340 	   23.0000 	   17.0000 	   30.6949 
   10.2617 	   59.3530 	   23.0000 	   17.0000 	   30.7329 
   10.2007 	   59.3720 	   23.0000 	   17.0000 	   30.7709 
   10.2312 	   59.3930 	   23.0000 	   17.0000 	   30.8129 
   10.1396 	   59.4150 	   23.0000 	   17.0000 	   30.8569 
   10.2464 	   59.4370 	   23.0000 	   17.0000 	   30.9009 
   10.2617 	   59.4595 	   23.0000 	   17.0000 	   30.9459 
   10.2312 	   59.4805 	   23.0000 	   17.0000 	   30.9879 
   10.3532 	   59.5010 	   23.0000 	   17.0000 	   31.0289 
   10.3227 	   59.5230 	   23.0000 	   17.0000 	   31.0729 
   10.4753 	   59.5445 	   23.0000 	   17.0000 	   31.1159 
   10.4143 	   59.5660 	   23.0000 	   17.0000 	   31.1589 
   10.2617 	   59.5890 	   23.0000 	   17.0000 	   31.2049 
   10.3838 	   59.6110 	   23.0000 	   17.0000 	   31.2489 
   10.3990 	   59.6330 	   23.0000 	   17.0000 	   31.2929 
   10.3838 	   59.6540 	   23.0000 	   17.0000 	   31.3349 
   10.4295 	   59.6760 	   23.0000 	   17.0000 	   31.3789 
   10.5058 	   59.6980 	   23.0000 	   17.0000 	   31.4229 
   10.0633 	   59.7200 	   23.0000 	   17.0000 	   31.4669 
   10.3990 	   59.7415 	   23.0000 	   17.0000 	   31.5099 
   10.4143 	   59.7635 	   23.0000 	   17.0000 	   31.5539 
   10.5058 	   59.7850 	   23.0000 	   17.0000 	   31.5969 
   10.2007 	   59.8060 	   23.0000 	   17.0000 	   31.6389 
   10.4295 	   59.8275 	   23.0000 	   17.0000 	   31.6819 
   10.3532 	   59.8490 	   23.0000 	   17.0000 	   31.7249 
   10.4448 	   59.8700 	   23.0000 	   17.0000 	   31.7669 
