Thayer School of Engineering        Instron 4442 Mechanical Testing System
7/9/2018 3:11:25 AM

  Force (N)	Extension (mm)	Not Used	Not Used	Not Used	     Hour	    Minute	    Second
    0.6638 	    2.0560 	    3.0000 	   11.0000 	   56.6584 
    0.8316 	    2.1220 	    3.0000 	   11.0000 	   56.6914 
    0.8164 	    2.2620 	    3.0000 	   11.0000 	   56.7614 
    0.7401 	    2.3800 	    3.0000 	   11.0000 	   56.8204 
    0.8316 	    2.4920 	    3.0000 	   11.0000 	   56.8764 
    0.7858 	    2.5980 	    3.0000 	   11.0000 	   56.9294 
    0.7706 	    2.7040 	    3.0000 	   11.0000 	   56.9824 
    0.8774 	    2.8060 	    3.0000 	   11.0000 	   57.0334 
    0.9232 	    2.9040 	    3.0000 	   11.0000 	   57.0824 
    0.8011 	    3.0020 	    3.0000 	   11.0000 	   57.1314 
    0.8927 	    3.1100 	    3.0000 	   11.0000 	   57.1854 
    0.8164 	    3.2160 	    3.0000 	   11.0000 	   57.2384 
    0.8621 	    3.3200 	    3.0000 	   11.0000 	   57.2904 
    1.0147 	    3.4200 	    3.0000 	   11.0000 	   57.3404 
    0.8164 	    3.5200 	    3.0000 	   11.0000 	   57.3904 
    0.9842 	    3.6220 	    3.0000 	   11.0000 	   57.4414 
    0.8316 	    3.7300 	    3.0000 	   11.0000 	   57.4954 
    0.8927 	    3.8360 	    3.0000 	   11.0000 	   57.5484 
    1.0758 	    3.9380 	    3.0000 	   11.0000 	   57.5994 
    0.9537 	    4.0360 	    3.0000 	   11.0000 	   57.6485 
    0.7706 	    4.1360 	    3.0000 	   11.0000 	   57.6985 
    0.9079 	    4.2440 	    3.0000 	   11.0000 	   57.7525 
    1.1063 	    4.3460 	    3.0000 	   11.0000 	   57.8035 
    1.0147 	    4.4480 	    3.0000 	   11.0000 	   57.8545 
    0.9079 	    4.5560 	    3.0000 	   11.0000 	   57.9085 
    0.9995 	    4.6780 	    3.0000 	   11.0000 	   57.9695 
    1.1978 	    4.7920 	    3.0000 	   11.0000 	   58.0265 
    1.0758 	    4.8900 	    3.0000 	   11.0000 	   58.0755 
    0.9995 	    5.0000 	    3.0000 	   11.0000 	   58.1305 
    1.1826 	    5.1040 	    3.0000 	   11.0000 	   58.1825 
    0.9995 	    5.2200 	    3.0000 	   11.0000 	   58.2405 
    1.0147 	    5.3340 	    3.0000 	   11.0000 	   58.2975 
    1.1673 	    5.4380 	    3.0000 	   11.0000 	   58.3495 
    1.0452 	    5.5440 	    3.0000 	   11.0000 	   58.4025 
    1.0910 	    5.6420 	    3.0000 	   11.0000 	   58.4515 
    1.0758 	    5.7540 	    3.0000 	   11.0000 	   58.5075 
    1.0147 	    5.8660 	    3.0000 	   11.0000 	   58.5635 
    1.0300 	    5.9720 	    3.0000 	   11.0000 	   58.6165 
    0.9842 	    6.0360 	    3.0000 	   11.0000 	   58.6485 
    0.9384 	    6.0980 	    3.0000 	   11.0000 	   58.6795 
    1.0452 	    6.2140 	    3.0000 	   11.0000 	   58.7375 
    1.0452 	    6.3160 	    3.0000 	   11.0000 	   58.7885 
    1.0452 	    6.4320 	    3.0000 	   11.0000 	   58.8465 
    0.9079 	    6.4880 	    3.0000 	   11.0000 	   58.8745 
    1.0910 	    6.5460 	    3.0000 	   11.0000 	   58.9035 
    1.1978 	    6.6060 	    3.0000 	   11.0000 	   58.9335 
    1.2436 	    6.6600 	    3.0000 	   11.0000 	   58.9605 
    0.9995 	    6.7720 	    3.0000 	   11.0000 	   59.0165 
    1.0910 	    6.8780 	    3.0000 	   11.0000 	   59.0695 
    1.1978 	    6.9320 	    3.0000 	   11.0000 	   59.0965 
    1.3352 	    6.9880 	    3.0000 	   11.0000 	   59.1245 
    1.1521 	    7.0440 	    3.0000 	   11.0000 	   59.1525 
    1.2284 	    7.1520 	    3.0000 	   11.0000 	   59.2065 
    1.0452 	    7.2160 	    3.0000 	   11.0000 	   59.2385 
    1.2131 	    7.2820 	    3.0000 	   11.0000 	   59.2715 
    1.1673 	    7.3460 	    3.0000 	   11.0000 	   59.3035 
    1.1215 	    7.4100 	    3.0000 	   11.0000 	   59.3355 
    1.1673 	    7.4740 	    3.0000 	   11.0000 	   59.3675 
    1.3962 	    7.5380 	    3.0000 	   11.0000 	   59.3996 
    1.1826 	    7.6020 	    3.0000 	   11.0000 	   59.4316 
    1.2741 	    7.6620 	    3.0000 	   11.0000 	   59.4616 
    1.0910 	    7.7260 	    3.0000 	   11.0000 	   59.4926 
    1.3046 	    7.7880 	    3.0000 	   11.0000 	   59.5246 
    1.2894 	    7.8520 	    3.0000 	   11.0000 	   59.5566 
    1.1063 	    7.9220 	    3.0000 	   11.0000 	   59.5916 
    1.0605 	    7.9840 	    3.0000 	   11.0000 	   59.6226 
    1.1521 	    8.0560 	    3.0000 	   11.0000 	   59.6586 
    1.0758 	    8.1220 	    3.0000 	   11.0000 	   59.6916 
    1.1063 	    8.1900 	    3.0000 	   11.0000 	   59.7256 
    1.1673 	    8.2560 	    3.0000 	   11.0000 	   59.7586 
    1.2284 	    8.3200 	    3.0000 	   11.0000 	   59.7906 
    1.3046 	    8.3880 	    3.0000 	   11.0000 	   59.8246 
    1.1826 	    8.4540 	    3.0000 	   11.0000 	   59.8576 
    1.2589 	    8.5140 	    3.0000 	   11.0000 	   59.8876 
    1.1673 	    8.5740 	    3.0000 	   11.0000 	   59.9176 
    1.1521 	    8.6340 	    3.0000 	   11.0000 	   59.9476 
    1.1215 	    8.6860 	    3.0000 	   11.0000 	   59.9736 
    1.3504 	    8.7440 	    3.0000 	   12.0000 	    0.0026 
    1.2284 	    8.7960 	    3.0000 	   12.0000 	    0.0286 
    1.0605 	    8.8540 	    3.0000 	   12.0000 	    0.0576 
    1.2741 	    8.9040 	    3.0000 	   12.0000 	    0.0826 
    1.2284 	    8.9560 	    3.0000 	   12.0000 	    0.1086 
    1.1521 	    9.0100 	    3.0000 	   12.0000 	    0.1356 
    1.2589 	    9.0640 	    3.0000 	   12.0000 	    0.1626 
    1.2436 	    9.1260 	    3.0000 	   12.0000 	    0.1936 
    1.1826 	    9.1880 	    3.0000 	   12.0000 	    0.2246 
    1.2131 	    9.2560 	    3.0000 	   12.0000 	    0.2586 
    1.2589 	    9.3180 	    3.0000 	   12.0000 	    0.2896 
    1.2741 	    9.3880 	    3.0000 	   12.0000 	    0.3246 
    1.1215 	    9.4520 	    3.0000 	   12.0000 	    0.3566 
    1.1215 	    9.5180 	    3.0000 	   12.0000 	    0.3896 
    1.4725 	    9.5800 	    3.0000 	   12.0000 	    0.4206 
    1.2284 	    9.6520 	    3.0000 	   12.0000 	    0.4566 
    1.1215 	    9.7180 	    3.0000 	   12.0000 	    0.4896 
    0.9689 	    9.7880 	    3.0000 	   12.0000 	    0.5246 
    1.1063 	    9.8560 	    3.0000 	   12.0000 	    0.5586 
    1.2894 	    9.9180 	    3.0000 	   12.0000 	    0.5896 
    1.2436 	    9.9860 	    3.0000 	   12.0000 	    0.6236 
    1.2894 	   10.0540 	    3.0000 	   12.0000 	    0.6576 
    1.4115 	   10.1160 	    3.0000 	   12.0000 	    0.6886 
    1.2284 	   10.1840 	    3.0000 	   12.0000 	    0.7226 
    1.3046 	   10.2480 	    3.0000 	   12.0000 	    0.7546 
    1.3352 	   10.3020 	    3.0000 	   12.0000 	    0.7816 
    1.2894 	   10.3580 	    3.0000 	   12.0000 	    0.8096 
    1.3352 	   10.4100 	    3.0000 	   12.0000 	    0.8356 
    1.2894 	   10.4620 	    3.0000 	   12.0000 	    0.8616 
    1.4420 	   10.5200 	    3.0000 	   12.0000 	    0.8906 
    1.2436 	   10.5720 	    3.0000 	   12.0000 	    0.9166 
    1.2284 	   10.6300 	    3.0000 	   12.0000 	    0.9456 
    1.3962 	   10.6820 	    3.0000 	   12.0000 	    0.9706 
    1.3657 	   10.7420 	    3.0000 	   12.0000 	    1.0016 
    1.4572 	   10.7940 	    3.0000 	   12.0000 	    1.0276 
    1.3046 	   10.8520 	    3.0000 	   12.0000 	    1.0566 
    1.3504 	   10.9040 	    3.0000 	   12.0000 	    1.0826 
    1.2894 	   10.9560 	    3.0000 	   12.0000 	    1.1087 
    1.4267 	   11.0100 	    3.0000 	   12.0000 	    1.1357 
    1.2741 	   11.0660 	    3.0000 	   12.0000 	    1.1637 
    1.6098 	   11.1300 	    3.0000 	   12.0000 	    1.1957 
    1.4267 	   11.1900 	    3.0000 	   12.0000 	    1.2257 
    1.1826 	   11.2520 	    3.0000 	   12.0000 	    1.2567 
    1.3809 	   11.3140 	    3.0000 	   12.0000 	    1.2877 
    1.2894 	   11.3800 	    3.0000 	   12.0000 	    1.3207 
    1.3504 	   11.4440 	    3.0000 	   12.0000 	    1.3527 
    1.3046 	   11.5000 	    3.0000 	   12.0000 	    1.3807 
    1.3504 	   11.5640 	    3.0000 	   12.0000 	    1.4127 
    1.2589 	   11.6200 	    3.0000 	   12.0000 	    1.4407 
    1.3504 	   11.6820 	    3.0000 	   12.0000 	    1.4717 
    1.3046 	   11.7540 	    3.0000 	   12.0000 	    1.5077 
    1.3504 	   11.8180 	    3.0000 	   12.0000 	    1.5397 
    1.3657 	   11.8820 	    3.0000 	   12.0000 	    1.5717 
    1.5335 	   11.9500 	    3.0000 	   12.0000 	    1.6057 
    1.3809 	   12.0200 	    3.0000 	   12.0000 	    1.6407 
    1.1521 	   12.0820 	    3.0000 	   12.0000 	    1.6717 
    1.3809 	   12.1500 	    3.0000 	   12.0000 	    1.7057 
    1.1215 	   12.2140 	    3.0000 	   12.0000 	    1.7377 
    1.0452 	   12.2740 	    3.0000 	   12.0000 	    1.7677 
    1.4420 	   12.3400 	    3.0000 	   12.0000 	    1.8007 
    1.5030 	   12.4000 	    3.0000 	   12.0000 	    1.8307 
    1.5335 	   12.4560 	    3.0000 	   12.0000 	    1.8587 
    1.3504 	   12.5160 	    3.0000 	   12.0000 	    1.8887 
    1.4115 	   12.5740 	    3.0000 	   12.0000 	    1.9177 
    1.4878 	   12.6300 	    3.0000 	   12.0000 	    1.9457 
    1.4115 	   12.6840 	    3.0000 	   12.0000 	    1.9727 
    1.3962 	   12.7440 	    3.0000 	   12.0000 	    2.0027 
    1.4878 	   12.7980 	    3.0000 	   12.0000 	    2.0287 
    1.3809 	   12.8480 	    3.0000 	   12.0000 	    2.0547 
    1.5946 	   12.9020 	    3.0000 	   12.0000 	    2.0817 
    1.4420 	   12.9560 	    3.0000 	   12.0000 	    2.1087 
    1.5030 	   13.0100 	    3.0000 	   12.0000 	    2.1357 
    1.6098 	   13.0660 	    3.0000 	   12.0000 	    2.1637 
    1.3809 	   13.1300 	    3.0000 	   12.0000 	    2.1957 
    1.4725 	   13.1920 	    3.0000 	   12.0000 	    2.2267 
    1.4420 	   13.2540 	    3.0000 	   12.0000 	    2.2577 
    1.1978 	   13.3120 	    3.0000 	   12.0000 	    2.2867 
    1.5335 	   13.3780 	    3.0000 	   12.0000 	    2.3197 
    1.5030 	   13.4360 	    3.0000 	   12.0000 	    2.3487 
    1.5183 	   13.4940 	    3.0000 	   12.0000 	    2.3777 
    1.6861 	   13.5540 	    3.0000 	   12.0000 	    2.4077 
    1.5030 	   13.6160 	    3.0000 	   12.0000 	    2.4387 
    1.6861 	   13.6780 	    3.0000 	   12.0000 	    2.4697 
    1.4420 	   13.7480 	    3.0000 	   12.0000 	    2.5047 
    1.5640 	   13.8100 	    3.0000 	   12.0000 	    2.5357 
    1.5640 	   13.8760 	    3.0000 	   12.0000 	    2.5687 
    1.5946 	   13.9440 	    3.0000 	   12.0000 	    2.6027 
    1.5640 	   14.0000 	    3.0000 	   12.0000 	    2.6307 
    1.5030 	   14.0620 	    3.0000 	   12.0000 	    2.6617 
    1.5640 	   14.1260 	    3.0000 	   12.0000 	    2.6937 
    1.5488 	   14.1920 	    3.0000 	   12.0000 	    2.7267 
    1.5183 	   14.2540 	    3.0000 	   12.0000 	    2.7577 
    1.5030 	   14.3180 	    3.0000 	   12.0000 	    2.7897 
    1.5488 	   14.3900 	    3.0000 	   12.0000 	    2.8257 
    1.4878 	   14.4520 	    3.0000 	   12.0000 	    2.8568 
    1.3809 	   14.5120 	    3.0000 	   12.0000 	    2.8868 
    1.4115 	   14.5740 	    3.0000 	   12.0000 	    2.9178 
    1.4420 	   14.6360 	    3.0000 	   12.0000 	    2.9488 
    1.5640 	   14.6900 	    3.0000 	   12.0000 	    2.9758 
    1.5335 	   14.7440 	    3.0000 	   12.0000 	    3.0028 
    1.5335 	   14.7960 	    3.0000 	   12.0000 	    3.0288 
    1.5030 	   14.8500 	    3.0000 	   12.0000 	    3.0558 
    1.5793 	   14.9080 	    3.0000 	   12.0000 	    3.0848 
    1.4878 	   14.9580 	    3.0000 	   12.0000 	    3.1098 
    1.3657 	   15.0140 	    3.0000 	   12.0000 	    3.1378 
    1.4725 	   15.0700 	    3.0000 	   12.0000 	    3.1658 
    1.4878 	   15.1360 	    3.0000 	   12.0000 	    3.1988 
    1.4420 	   15.1960 	    3.0000 	   12.0000 	    3.2288 
    1.6556 	   15.2540 	    3.0000 	   12.0000 	    3.2578 
    1.5793 	   15.3160 	    3.0000 	   12.0000 	    3.2888 
    1.5335 	   15.3860 	    3.0000 	   12.0000 	    3.3238 
    1.5793 	   15.4500 	    3.0000 	   12.0000 	    3.3558 
    1.4115 	   15.5140 	    3.0000 	   12.0000 	    3.3878 
    1.5030 	   15.5820 	    3.0000 	   12.0000 	    3.4218 
    1.5488 	   15.6440 	    3.0000 	   12.0000 	    3.4528 
    1.2894 	   15.7080 	    3.0000 	   12.0000 	    3.4848 
    1.3504 	   15.7780 	    3.0000 	   12.0000 	    3.5198 
    1.6251 	   15.8380 	    3.0000 	   12.0000 	    3.5498 
    1.6098 	   15.8980 	    3.0000 	   12.0000 	    3.5798 
    1.7014 	   15.9660 	    3.0000 	   12.0000 	    3.6138 
    1.6556 	   16.0240 	    3.0000 	   12.0000 	    3.6428 
    1.5640 	   16.0940 	    3.0000 	   12.0000 	    3.6778 
    1.2741 	   16.1620 	    3.0000 	   12.0000 	    3.7118 
    1.5793 	   16.2200 	    3.0000 	   12.0000 	    3.7408 
    1.6251 	   16.2840 	    3.0000 	   12.0000 	    3.7728 
    1.5030 	   16.3540 	    3.0000 	   12.0000 	    3.8078 
    1.6251 	   16.4160 	    3.0000 	   12.0000 	    3.8388 
    1.7472 	   16.4780 	    3.0000 	   12.0000 	    3.8698 
    1.4878 	   16.5420 	    3.0000 	   12.0000 	    3.9018 
    1.3809 	   16.5980 	    3.0000 	   12.0000 	    3.9298 
    1.5946 	   16.6520 	    3.0000 	   12.0000 	    3.9568 
    1.6709 	   16.7040 	    3.0000 	   12.0000 	    3.9828 
    1.6251 	   16.7640 	    3.0000 	   12.0000 	    4.0128 
    1.5640 	   16.8160 	    3.0000 	   12.0000 	    4.0388 
    1.7624 	   16.8720 	    3.0000 	   12.0000 	    4.0668 
    1.6861 	   16.9300 	    3.0000 	   12.0000 	    4.0958 
    1.6556 	   16.9780 	    3.0000 	   12.0000 	    4.1198 
    1.7319 	   17.0300 	    3.0000 	   12.0000 	    4.1458 
    1.4420 	   17.0820 	    3.0000 	   12.0000 	    4.1718 
    1.6861 	   17.1500 	    3.0000 	   12.0000 	    4.2058 
    1.6861 	   17.2160 	    3.0000 	   12.0000 	    4.2388 
    1.7929 	   17.2800 	    3.0000 	   12.0000 	    4.2708 
    1.5793 	   17.3500 	    3.0000 	   12.0000 	    4.3058 
    1.7166 	   17.4180 	    3.0000 	   12.0000 	    4.3398 
    1.5793 	   17.4860 	    3.0000 	   12.0000 	    4.3738 
    1.6251 	   17.5540 	    3.0000 	   12.0000 	    4.4078 
    1.5793 	   17.6160 	    3.0000 	   12.0000 	    4.4388 
    1.7472 	   17.6820 	    3.0000 	   12.0000 	    4.4718 
    1.6556 	   17.7460 	    3.0000 	   12.0000 	    4.5038 
    1.3046 	   17.8080 	    3.0000 	   12.0000 	    4.5348 
    1.6556 	   17.8660 	    3.0000 	   12.0000 	    4.5638 
    1.5640 	   17.9340 	    3.0000 	   12.0000 	    4.5979 
    1.4115 	   17.9940 	    3.0000 	   12.0000 	    4.6279 
    1.7014 	   18.0540 	    3.0000 	   12.0000 	    4.6579 
    1.6403 	   18.1180 	    3.0000 	   12.0000 	    4.6899 
    1.8082 	   18.1880 	    3.0000 	   12.0000 	    4.7249 
    1.6709 	   18.2480 	    3.0000 	   12.0000 	    4.7549 
    1.6556 	   18.3120 	    3.0000 	   12.0000 	    4.7869 
    1.7777 	   18.3740 	    3.0000 	   12.0000 	    4.8179 
    1.7014 	   18.4460 	    3.0000 	   12.0000 	    4.8539 
    1.6251 	   18.5040 	    3.0000 	   12.0000 	    4.8829 
    1.7319 	   18.5600 	    3.0000 	   12.0000 	    4.9109 
    1.7929 	   18.6320 	    3.0000 	   12.0000 	    4.9469 
    1.7777 	   18.6860 	    3.0000 	   12.0000 	    4.9739 
    1.6861 	   18.7420 	    3.0000 	   12.0000 	    5.0019 
    1.7929 	   18.7940 	    3.0000 	   12.0000 	    5.0279 
    1.7166 	   18.8480 	    3.0000 	   12.0000 	    5.0549 
    1.6709 	   18.9140 	    3.0000 	   12.0000 	    5.0879 
    1.8082 	   18.9700 	    3.0000 	   12.0000 	    5.1159 
    1.7166 	   19.0260 	    3.0000 	   12.0000 	    5.1439 
    1.7472 	   19.0820 	    3.0000 	   12.0000 	    5.1719 
    1.9608 	   19.1440 	    3.0000 	   12.0000 	    5.2029 
    1.8692 	   19.1980 	    3.0000 	   12.0000 	    5.2299 
    1.8540 	   19.2540 	    3.0000 	   12.0000 	    5.2579 
    1.6709 	   19.3100 	    3.0000 	   12.0000 	    5.2859 
    1.6556 	   19.3720 	    3.0000 	   12.0000 	    5.3169 
    1.6709 	   19.4300 	    3.0000 	   12.0000 	    5.3459 
    1.6709 	   19.4880 	    3.0000 	   12.0000 	    5.3749 
    1.7472 	   19.5500 	    3.0000 	   12.0000 	    5.4059 
    1.8387 	   19.6200 	    3.0000 	   12.0000 	    5.4409 
    1.8540 	   19.6880 	    3.0000 	   12.0000 	    5.4749 
    1.8997 	   19.7460 	    3.0000 	   12.0000 	    5.5039 
    1.8082 	   19.8080 	    3.0000 	   12.0000 	    5.5349 
    1.6403 	   19.8660 	    3.0000 	   12.0000 	    5.5639 
    1.7624 	   19.9300 	    3.0000 	   12.0000 	    5.5959 
    1.7929 	   19.9920 	    3.0000 	   12.0000 	    5.6269 
    1.8997 	   20.0540 	    3.0000 	   12.0000 	    5.6579 
    1.8387 	   20.1140 	    3.0000 	   12.0000 	    5.6879 
    1.9455 	   20.1760 	    3.0000 	   12.0000 	    5.7189 
    1.7472 	   20.2360 	    3.0000 	   12.0000 	    5.7489 
    1.7777 	   20.2980 	    3.0000 	   12.0000 	    5.7799 
    1.8540 	   20.3600 	    3.0000 	   12.0000 	    5.8109 
    1.8235 	   20.4220 	    3.0000 	   12.0000 	    5.8419 
    1.9303 	   20.4820 	    3.0000 	   12.0000 	    5.8719 
    1.8235 	   20.5420 	    3.0000 	   12.0000 	    5.9019 
    1.7472 	   20.5980 	    3.0000 	   12.0000 	    5.9299 
    1.7624 	   20.6600 	    3.0000 	   12.0000 	    5.9609 
    1.9150 	   20.7180 	    3.0000 	   12.0000 	    5.9899 
    1.9608 	   20.7720 	    3.0000 	   12.0000 	    6.0169 
    1.7472 	   20.8260 	    3.0000 	   12.0000 	    6.0439 
    1.8997 	   20.8800 	    3.0000 	   12.0000 	    6.0709 
    1.8387 	   20.9340 	    3.0000 	   12.0000 	    6.0979 
    1.8692 	   20.9840 	    3.0000 	   12.0000 	    6.1229 
    1.8387 	   21.0380 	    3.0000 	   12.0000 	    6.1499 
    1.5793 	   21.0880 	    3.0000 	   12.0000 	    6.1749 
    1.7319 	   21.1480 	    3.0000 	   12.0000 	    6.2049 
    1.9455 	   21.2040 	    3.0000 	   12.0000 	    6.2329 
    2.0829 	   21.2580 	    3.0000 	   12.0000 	    6.2599 
    1.8387 	   21.3120 	    3.0000 	   12.0000 	    6.2869 
    1.7777 	   21.3700 	    3.0000 	   12.0000 	    6.3159 
    1.9303 	   21.4220 	    3.0000 	   12.0000 	    6.3419 
    1.8387 	   21.4780 	    3.0000 	   12.0000 	    6.3700 
    1.8082 	   21.5300 	    3.0000 	   12.0000 	    6.3960 
    1.8235 	   21.5900 	    3.0000 	   12.0000 	    6.4260 
    1.7929 	   21.6580 	    3.0000 	   12.0000 	    6.4600 
    1.8692 	   21.7200 	    3.0000 	   12.0000 	    6.4910 
    2.0218 	   21.7860 	    3.0000 	   12.0000 	    6.5230 
    1.9455 	   21.8480 	    3.0000 	   12.0000 	    6.5550 
    1.9608 	   21.9180 	    3.0000 	   12.0000 	    6.5900 
    1.9760 	   21.9800 	    3.0000 	   12.0000 	    6.6210 
    1.5946 	   22.0340 	    3.0000 	   12.0000 	    6.6480 
    1.7014 	   22.0880 	    3.0000 	   12.0000 	    6.6750 
    2.0066 	   22.1480 	    3.0000 	   12.0000 	    6.7050 
    1.8235 	   22.2060 	    3.0000 	   12.0000 	    6.7340 
    1.9455 	   22.2620 	    3.0000 	   12.0000 	    6.7620 
    1.9455 	   22.3220 	    3.0000 	   12.0000 	    6.7920 
    1.8692 	   22.3840 	    3.0000 	   12.0000 	    6.8230 
    1.9303 	   22.4480 	    3.0000 	   12.0000 	    6.8550 
    1.9455 	   22.5100 	    3.0000 	   12.0000 	    6.8860 
    1.9913 	   22.5640 	    3.0000 	   12.0000 	    6.9130 
    1.8997 	   22.6280 	    3.0000 	   12.0000 	    6.9450 
    1.8082 	   22.6860 	    3.0000 	   12.0000 	    6.9740 
    1.9913 	   22.7440 	    3.0000 	   12.0000 	    7.0030 
    1.8692 	   22.8000 	    3.0000 	   12.0000 	    7.0310 
    1.8845 	   22.8560 	    3.0000 	   12.0000 	    7.0590 
    2.0371 	   22.9120 	    3.0000 	   12.0000 	    7.0870 
    1.9608 	   22.9640 	    3.0000 	   12.0000 	    7.1130 
    1.8387 	   23.0180 	    3.0000 	   12.0000 	    7.1400 
    1.8692 	   23.0700 	    3.0000 	   12.0000 	    7.1660 
    1.9455 	   23.1360 	    3.0000 	   12.0000 	    7.1990 
    1.9455 	   23.2000 	    3.0000 	   12.0000 	    7.2310 
    2.0066 	   23.2620 	    3.0000 	   12.0000 	    7.2620 
    1.9608 	   23.3220 	    3.0000 	   12.0000 	    7.2920 
    1.8845 	   23.3860 	    3.0000 	   12.0000 	    7.3240 
    2.1744 	   23.4500 	    3.0000 	   12.0000 	    7.3560 
    1.8997 	   23.5160 	    3.0000 	   12.0000 	    7.3880 
    1.9455 	   23.5840 	    3.0000 	   12.0000 	    7.4220 
    1.9455 	   23.6540 	    3.0000 	   12.0000 	    7.4570 
    2.0523 	   23.7180 	    3.0000 	   12.0000 	    7.4890 
    2.1286 	   23.7820 	    3.0000 	   12.0000 	    7.5210 
    1.8845 	   23.8500 	    3.0000 	   12.0000 	    7.5550 
    2.0981 	   23.9120 	    3.0000 	   12.0000 	    7.5860 
    2.0371 	   23.9740 	    3.0000 	   12.0000 	    7.6170 
    2.1439 	   24.0360 	    3.0000 	   12.0000 	    7.6480 
    2.0371 	   24.1000 	    3.0000 	   12.0000 	    7.6800 
    1.9760 	   24.1680 	    3.0000 	   12.0000 	    7.7140 
    2.0218 	   24.2300 	    3.0000 	   12.0000 	    7.7450 
    1.8845 	   24.2960 	    3.0000 	   12.0000 	    7.7780 
    2.0676 	   24.3600 	    3.0000 	   12.0000 	    7.8100 
    1.9760 	   24.4220 	    3.0000 	   12.0000 	    7.8410 
    2.0676 	   24.4840 	    3.0000 	   12.0000 	    7.8720 
    2.0829 	   24.5480 	    3.0000 	   12.0000 	    7.9040 
    1.9913 	   24.6080 	    3.0000 	   12.0000 	    7.9340 
    1.9913 	   24.6700 	    3.0000 	   12.0000 	    7.9650 
    2.0829 	   24.7260 	    3.0000 	   12.0000 	    7.9930 
    2.0523 	   24.7800 	    3.0000 	   12.0000 	    8.0200 
    2.2202 	   24.8360 	    3.0000 	   12.0000 	    8.0480 
    2.0523 	   24.8880 	    3.0000 	   12.0000 	    8.0740 
    2.1439 	   24.9460 	    3.0000 	   12.0000 	    8.1031 
    2.0981 	   25.0000 	    3.0000 	   12.0000 	    8.1301 
    2.1134 	   25.0560 	    3.0000 	   12.0000 	    8.1581 
    2.1286 	   25.1160 	    3.0000 	   12.0000 	    8.1881 
    2.2354 	   25.1780 	    3.0000 	   12.0000 	    8.2191 
    2.0218 	   25.2420 	    3.0000 	   12.0000 	    8.2511 
    2.0066 	   25.3000 	    3.0000 	   12.0000 	    8.2801 
    1.9303 	   25.3660 	    3.0000 	   12.0000 	    8.3131 
    2.0218 	   25.4300 	    3.0000 	   12.0000 	    8.3451 
    2.0218 	   25.4920 	    3.0000 	   12.0000 	    8.3761 
    2.3117 	   25.5500 	    3.0000 	   12.0000 	    8.4051 
    2.1439 	   25.6140 	    3.0000 	   12.0000 	    8.4371 
    1.8082 	   25.7440 	    3.0000 	   12.0000 	    8.5021 
    2.1134 	   25.8020 	    3.0000 	   12.0000 	    8.5311 
    2.2354 	   25.8660 	    3.0000 	   12.0000 	    8.5631 
    2.1897 	   25.9300 	    3.0000 	   12.0000 	    8.5941 
    2.0523 	   25.9880 	    3.0000 	   12.0000 	    8.6241 
    2.2507 	   26.0520 	    3.0000 	   12.0000 	    8.6561 
    2.0981 	   26.1180 	    3.0000 	   12.0000 	    8.6891 
    2.0523 	   26.1840 	    3.0000 	   12.0000 	    8.7221 
    2.1744 	   26.2500 	    3.0000 	   12.0000 	    8.7551 
    2.0371 	   26.3160 	    3.0000 	   12.0000 	    8.7881 
    2.0066 	   26.3800 	    3.0000 	   12.0000 	    8.8201 
    2.0523 	   26.4440 	    3.0000 	   12.0000 	    8.8521 
    2.1897 	   26.5040 	    3.0000 	   12.0000 	    8.8821 
    2.2049 	   26.5580 	    3.0000 	   12.0000 	    8.9091 
    2.1286 	   26.6240 	    3.0000 	   12.0000 	    8.9421 
    2.1134 	   26.6820 	    3.0000 	   12.0000 	    8.9711 
    2.2049 	   26.7400 	    3.0000 	   12.0000 	    9.0001 
    1.9608 	   26.7940 	    3.0000 	   12.0000 	    9.0271 
    2.0829 	   26.8460 	    3.0000 	   12.0000 	    9.0531 
    2.2507 	   26.9020 	    3.0000 	   12.0000 	    9.0811 
    2.1744 	   26.9560 	    3.0000 	   12.0000 	    9.1081 
    2.3270 	   27.0080 	    3.0000 	   12.0000 	    9.1341 
    2.1134 	   27.0580 	    3.0000 	   12.0000 	    9.1591 
    2.2507 	   27.1200 	    3.0000 	   12.0000 	    9.1901 
    2.2507 	   27.1840 	    3.0000 	   12.0000 	    9.2221 
    2.3117 	   27.2480 	    3.0000 	   12.0000 	    9.2541 
    2.1897 	   27.3100 	    3.0000 	   12.0000 	    9.2851 
    2.2507 	   27.3720 	    3.0000 	   12.0000 	    9.3161 
    2.1897 	   27.4340 	    3.0000 	   12.0000 	    9.3471 
    2.1744 	   27.4960 	    3.0000 	   12.0000 	    9.3781 
    2.3880 	   27.5580 	    3.0000 	   12.0000 	    9.4091 
    2.2507 	   27.6220 	    3.0000 	   12.0000 	    9.4411 
    2.2965 	   27.6880 	    3.0000 	   12.0000 	    9.4741 
    2.1592 	   27.7540 	    3.0000 	   12.0000 	    9.5071 
    2.1897 	   27.8160 	    3.0000 	   12.0000 	    9.5381 
    2.0523 	   27.8760 	    3.0000 	   12.0000 	    9.5681 
    2.1134 	   27.9380 	    3.0000 	   12.0000 	    9.5991 
    2.2049 	   28.0000 	    3.0000 	   12.0000 	    9.6301 
    2.3575 	   28.0660 	    3.0000 	   12.0000 	    9.6631 
    2.0829 	   28.1360 	    3.0000 	   12.0000 	    9.6981 
    2.2354 	   28.2020 	    3.0000 	   12.0000 	    9.7311 
    2.3270 	   28.2660 	    3.0000 	   12.0000 	    9.7631 
    2.1592 	   28.3300 	    3.0000 	   12.0000 	    9.7951 
    2.2660 	   28.3920 	    3.0000 	   12.0000 	    9.8261 
    2.2202 	   28.4560 	    3.0000 	   12.0000 	    9.8582 
    2.2507 	   28.5200 	    3.0000 	   12.0000 	    9.8902 
    2.1744 	   28.5800 	    3.0000 	   12.0000 	    9.9202 
    2.1897 	   28.6460 	    3.0000 	   12.0000 	    9.9532 
    2.1592 	   28.7080 	    3.0000 	   12.0000 	    9.9842 
    2.3880 	   28.7620 	    3.0000 	   12.0000 	   10.0112 
    2.3728 	   28.8200 	    3.0000 	   12.0000 	   10.0402 
    2.3575 	   28.8780 	    3.0000 	   12.0000 	   10.0692 
    2.3728 	   28.9320 	    3.0000 	   12.0000 	   10.0962 
    2.2049 	   28.9900 	    3.0000 	   12.0000 	   10.1252 
    2.2965 	   29.0440 	    3.0000 	   12.0000 	   10.1522 
    2.3270 	   29.1040 	    3.0000 	   12.0000 	   10.1822 
    2.3423 	   29.1700 	    3.0000 	   12.0000 	   10.2152 
    2.2965 	   29.2300 	    3.0000 	   12.0000 	   10.2452 
    2.3728 	   29.2900 	    3.0000 	   12.0000 	   10.2752 
    2.3575 	   29.3520 	    3.0000 	   12.0000 	   10.3062 
    2.4186 	   29.4160 	    3.0000 	   12.0000 	   10.3382 
    2.3423 	   29.4800 	    3.0000 	   12.0000 	   10.3702 
    2.3728 	   29.5480 	    3.0000 	   12.0000 	   10.4042 
    2.5101 	   29.6120 	    3.0000 	   12.0000 	   10.4362 
    2.2049 	   29.6860 	    3.0000 	   12.0000 	   10.4732 
    2.4491 	   29.7580 	    3.0000 	   12.0000 	   10.5092 
    2.3270 	   29.8220 	    3.0000 	   12.0000 	   10.5412 
    2.3270 	   29.8840 	    3.0000 	   12.0000 	   10.5722 
    2.3270 	   29.9500 	    3.0000 	   12.0000 	   10.6052 
    2.3117 	   30.0140 	    3.0000 	   12.0000 	   10.6372 
    2.4186 	   30.0800 	    3.0000 	   12.0000 	   10.6702 
    2.4338 	   30.1460 	    3.0000 	   12.0000 	   10.7032 
    2.4948 	   30.2100 	    3.0000 	   12.0000 	   10.7352 
    2.4491 	   30.2720 	    3.0000 	   12.0000 	   10.7662 
    2.3728 	   30.3320 	    3.0000 	   12.0000 	   10.7962 
    2.4491 	   30.4000 	    3.0000 	   12.0000 	   10.8302 
    2.3575 	   30.4620 	    3.0000 	   12.0000 	   10.8612 
    2.4186 	   30.5260 	    3.0000 	   12.0000 	   10.8932 
    2.3728 	   30.5840 	    3.0000 	   12.0000 	   10.9222 
    2.3575 	   30.6500 	    3.0000 	   12.0000 	   10.9552 
    2.3423 	   30.7120 	    3.0000 	   12.0000 	   10.9862 
    2.4491 	   30.7720 	    3.0000 	   12.0000 	   11.0162 
    2.4033 	   30.8280 	    3.0000 	   12.0000 	   11.0442 
    2.3270 	   30.8840 	    3.0000 	   12.0000 	   11.0722 
    2.3880 	   30.9420 	    3.0000 	   12.0000 	   11.1012 
    2.4491 	   30.9960 	    3.0000 	   12.0000 	   11.1282 
    2.5101 	   31.0520 	    3.0000 	   12.0000 	   11.1562 
    2.2660 	   31.1100 	    3.0000 	   12.0000 	   11.1852 
    2.3728 	   31.1720 	    3.0000 	   12.0000 	   11.2162 
    2.4186 	   31.2320 	    3.0000 	   12.0000 	   11.2462 
    2.4796 	   31.2940 	    3.0000 	   12.0000 	   11.2772 
    2.4186 	   31.3520 	    3.0000 	   12.0000 	   11.3062 
    2.4796 	   31.4180 	    3.0000 	   12.0000 	   11.3392 
    2.3880 	   31.4820 	    3.0000 	   12.0000 	   11.3712 
    2.3575 	   31.5500 	    3.0000 	   12.0000 	   11.4052 
    2.3728 	   31.6120 	    3.0000 	   12.0000 	   11.4362 
    2.4491 	   31.6840 	    3.0000 	   12.0000 	   11.4722 
    2.5406 	   31.7500 	    3.0000 	   12.0000 	   11.5052 
    2.4643 	   31.8180 	    3.0000 	   12.0000 	   11.5392 
    2.5711 	   31.8780 	    3.0000 	   12.0000 	   11.5692 
    2.3880 	   31.9440 	    3.0000 	   12.0000 	   11.6023 
    2.4186 	   32.0040 	    3.0000 	   12.0000 	   11.6323 
    2.5559 	   32.0700 	    3.0000 	   12.0000 	   11.6653 
    2.5254 	   32.1400 	    3.0000 	   12.0000 	   11.7003 
    2.4491 	   32.2020 	    3.0000 	   12.0000 	   11.7313 
    2.5101 	   32.2640 	    3.0000 	   12.0000 	   11.7623 
    2.3117 	   32.3260 	    3.0000 	   12.0000 	   11.7933 
    2.4948 	   32.3920 	    3.0000 	   12.0000 	   11.8263 
    2.5559 	   32.4520 	    3.0000 	   12.0000 	   11.8563 
    2.1439 	   32.5200 	    3.0000 	   12.0000 	   11.8903 
    2.6169 	   32.5840 	    3.0000 	   12.0000 	   11.9223 
    2.4948 	   32.6500 	    3.0000 	   12.0000 	   11.9553 
    2.5711 	   32.7160 	    3.0000 	   12.0000 	   11.9883 
    2.5559 	   32.7760 	    3.0000 	   12.0000 	   12.0183 
    2.5101 	   32.8300 	    3.0000 	   12.0000 	   12.0453 
    2.4186 	   32.8860 	    3.0000 	   12.0000 	   12.0733 
    2.5254 	   32.9400 	    3.0000 	   12.0000 	   12.1003 
    2.7085 	   32.9940 	    3.0000 	   12.0000 	   12.1273 
    2.5864 	   33.0460 	    3.0000 	   12.0000 	   12.1533 
    2.4948 	   33.1040 	    3.0000 	   12.0000 	   12.1823 
    2.6169 	   33.1640 	    3.0000 	   12.0000 	   12.2123 
    2.5101 	   33.2220 	    3.0000 	   12.0000 	   12.2413 
    2.7085 	   33.2760 	    3.0000 	   12.0000 	   12.2683 
    2.4948 	   33.3320 	    3.0000 	   12.0000 	   12.2963 
    2.6169 	   33.3880 	    3.0000 	   12.0000 	   12.3243 
    2.6169 	   33.4440 	    3.0000 	   12.0000 	   12.3523 
    2.4491 	   33.5080 	    3.0000 	   12.0000 	   12.3843 
    2.2354 	   33.5720 	    3.0000 	   12.0000 	   12.4163 
    2.4338 	   33.6360 	    3.0000 	   12.0000 	   12.4483 
    2.5559 	   33.7040 	    3.0000 	   12.0000 	   12.4823 
    2.5101 	   33.7680 	    3.0000 	   12.0000 	   12.5143 
    2.5406 	   33.8300 	    3.0000 	   12.0000 	   12.5453 
    2.5559 	   33.8940 	    3.0000 	   12.0000 	   12.5773 
    2.4033 	   33.9520 	    3.0000 	   12.0000 	   12.6063 
    2.8305 	   34.0200 	    3.0000 	   12.0000 	   12.6403 
    2.6932 	   34.0820 	    3.0000 	   12.0000 	   12.6713 
    2.5864 	   34.2180 	    3.0000 	   12.0000 	   12.7393 
    2.5864 	   34.2820 	    3.0000 	   12.0000 	   12.7713 
    2.6932 	   34.3480 	    3.0000 	   12.0000 	   12.8043 
    2.6169 	   34.4120 	    3.0000 	   12.0000 	   12.8363 
    2.5406 	   34.4760 	    3.0000 	   12.0000 	   12.8683 
    2.5711 	   34.5400 	    3.0000 	   12.0000 	   12.9003 
    2.6322 	   34.5980 	    3.0000 	   12.0000 	   12.9293 
    2.5711 	   34.6680 	    3.0000 	   12.0000 	   12.9643 
    2.6627 	   34.7280 	    3.0000 	   12.0000 	   12.9943 
    2.6474 	   34.7860 	    3.0000 	   12.0000 	   13.0233 
    2.6322 	   34.8460 	    3.0000 	   12.0000 	   13.0533 
    2.6322 	   34.9000 	    3.0000 	   12.0000 	   13.0803 
    2.5711 	   34.9560 	    3.0000 	   12.0000 	   13.1083 
    2.7390 	   35.0120 	    3.0000 	   12.0000 	   13.1363 
    2.6474 	   35.0660 	    3.0000 	   12.0000 	   13.1633 
    2.7237 	   35.1300 	    3.0000 	   12.0000 	   13.1953 
    2.4491 	   35.1940 	    3.0000 	   12.0000 	   13.2273 
    2.8305 	   35.2600 	    3.0000 	   12.0000 	   13.2603 
    2.7848 	   35.3240 	    3.0000 	   12.0000 	   13.2923 
    2.7390 	   35.3860 	    3.0000 	   12.0000 	   13.3233 
    2.6780 	   35.4520 	    3.0000 	   12.0000 	   13.3564 
    2.7390 	   35.5160 	    3.0000 	   12.0000 	   13.3884 
    2.6474 	   35.5860 	    3.0000 	   12.0000 	   13.4234 
    2.7085 	   35.6500 	    3.0000 	   12.0000 	   13.4554 
    2.6627 	   35.7160 	    3.0000 	   12.0000 	   13.4884 
    2.8611 	   35.7820 	    3.0000 	   12.0000 	   13.5214 
    2.6627 	   35.8480 	    3.0000 	   12.0000 	   13.5544 
    2.8153 	   35.9140 	    3.0000 	   12.0000 	   13.5874 
    2.8000 	   35.9740 	    3.0000 	   12.0000 	   13.6174 
    2.9068 	   36.0340 	    3.0000 	   12.0000 	   13.6474 
    2.7390 	   36.0920 	    3.0000 	   12.0000 	   13.6764 
    2.7543 	   36.2100 	    3.0000 	   12.0000 	   13.7354 
    2.7390 	   36.2640 	    3.0000 	   12.0000 	   13.7624 
    2.5711 	   36.3180 	    3.0000 	   12.0000 	   13.7894 
    2.7237 	   36.3720 	    3.0000 	   12.0000 	   13.8164 
    2.7695 	   36.4360 	    3.0000 	   12.0000 	   13.8484 
    2.8000 	   36.5000 	    3.0000 	   12.0000 	   13.8804 
    2.8305 	   36.5600 	    3.0000 	   12.0000 	   13.9104 
    2.7543 	   36.6200 	    3.0000 	   12.0000 	   13.9404 
    2.9679 	   36.6780 	    3.0000 	   12.0000 	   13.9694 
    2.8000 	   36.7360 	    3.0000 	   12.0000 	   13.9984 
    2.8611 	   36.7940 	    3.0000 	   12.0000 	   14.0274 
    2.9831 	   36.8500 	    3.0000 	   12.0000 	   14.0554 
    2.8611 	   36.9060 	    3.0000 	   12.0000 	   14.0834 
    2.7695 	   36.9620 	    3.0000 	   12.0000 	   14.1114 
    2.6932 	   37.0180 	    3.0000 	   12.0000 	   14.1394 
    2.9374 	   37.0700 	    3.0000 	   12.0000 	   14.1654 
    2.9068 	   37.1320 	    3.0000 	   12.0000 	   14.1964 
    2.5559 	   37.1860 	    3.0000 	   12.0000 	   14.2234 
    2.7695 	   37.2420 	    3.0000 	   12.0000 	   14.2514 
    2.8000 	   37.2960 	    3.0000 	   12.0000 	   14.2784 
    2.8458 	   37.3520 	    3.0000 	   12.0000 	   14.3064 
    2.7390 	   37.4080 	    3.0000 	   12.0000 	   14.3344 
    2.5559 	   37.4700 	    3.0000 	   12.0000 	   14.3654 
    2.6169 	   37.5320 	    3.0000 	   12.0000 	   14.3964 
    2.9221 	   37.5880 	    3.0000 	   12.0000 	   14.4244 
    2.8153 	   37.6440 	    3.0000 	   12.0000 	   14.4524 
    2.8305 	   37.7000 	    3.0000 	   12.0000 	   14.4804 
    2.9831 	   37.7580 	    3.0000 	   12.0000 	   14.5084 
    2.8458 	   37.8200 	    3.0000 	   12.0000 	   14.5404 
    2.9984 	   37.8860 	    3.0000 	   12.0000 	   14.5734 
    2.8458 	   37.9500 	    3.0000 	   12.0000 	   14.6054 
    2.8000 	   38.0140 	    3.0000 	   12.0000 	   14.6374 
    2.9221 	   38.0800 	    3.0000 	   12.0000 	   14.6704 
    2.9679 	   38.1500 	    3.0000 	   12.0000 	   14.7054 
    2.8153 	   38.2160 	    3.0000 	   12.0000 	   14.7384 
    2.9831 	   38.2820 	    3.0000 	   12.0000 	   14.7714 
    2.8153 	   38.3500 	    3.0000 	   12.0000 	   14.8054 
    2.9221 	   38.4160 	    3.0000 	   12.0000 	   14.8384 
    2.9679 	   38.4800 	    3.0000 	   12.0000 	   14.8704 
    2.9831 	   38.5480 	    3.0000 	   12.0000 	   14.9044 
    2.8153 	   38.6120 	    3.0000 	   12.0000 	   14.9364 
    2.9831 	   38.6700 	    3.0000 	   12.0000 	   14.9654 
    2.9831 	   38.7300 	    3.0000 	   12.0000 	   14.9954 
    2.9526 	   38.7900 	    3.0000 	   12.0000 	   15.0254 
    3.0594 	   38.8520 	    3.0000 	   12.0000 	   15.0564 
    2.7543 	   38.9080 	    3.0000 	   12.0000 	   15.0844 
    3.0747 	   38.9720 	    3.0000 	   12.0000 	   15.1165 
    3.0289 	   39.0280 	    3.0000 	   12.0000 	   15.1445 
    3.0289 	   39.0860 	    3.0000 	   12.0000 	   15.1735 
    3.0594 	   39.1580 	    3.0000 	   12.0000 	   15.2095 
    3.0594 	   39.2260 	    3.0000 	   12.0000 	   15.2435 
    3.0594 	   39.2940 	    3.0000 	   12.0000 	   15.2775 
    2.9068 	   39.3600 	    3.0000 	   12.0000 	   15.3105 
    2.8763 	   39.4240 	    3.0000 	   12.0000 	   15.3425 
    2.9526 	   39.4920 	    3.0000 	   12.0000 	   15.3765 
    2.8763 	   39.5580 	    3.0000 	   12.0000 	   15.4095 
    2.8153 	   39.6220 	    3.0000 	   12.0000 	   15.4415 
    2.9984 	   39.6880 	    3.0000 	   12.0000 	   15.4745 
    2.9984 	   39.7520 	    3.0000 	   12.0000 	   15.5065 
    3.0289 	   39.8180 	    3.0000 	   12.0000 	   15.5395 
    2.9221 	   39.8840 	    3.0000 	   12.0000 	   15.5725 
    3.0747 	   39.9500 	    3.0000 	   12.0000 	   15.6055 
    3.1052 	   40.0140 	    3.0000 	   12.0000 	   15.6375 
    2.9831 	   40.0780 	    3.0000 	   12.0000 	   15.6695 
    3.1662 	   40.2160 	    3.0000 	   12.0000 	   15.7385 
    3.0289 	   40.2840 	    3.0000 	   12.0000 	   15.7725 
    2.9374 	   40.3480 	    3.0000 	   12.0000 	   15.8045 
    3.0747 	   40.4120 	    3.0000 	   12.0000 	   15.8365 
    3.1357 	   40.4760 	    3.0000 	   12.0000 	   15.8685 
    3.0594 	   40.5400 	    3.0000 	   12.0000 	   15.9005 
    3.0747 	   40.6040 	    3.0000 	   12.0000 	   15.9325 
    2.9984 	   40.6640 	    3.0000 	   12.0000 	   15.9625 
    2.8153 	   40.7220 	    3.0000 	   12.0000 	   15.9915 
    3.1357 	   40.7820 	    3.0000 	   12.0000 	   16.0215 
    2.9984 	   40.8400 	    3.0000 	   12.0000 	   16.0505 
    2.8611 	   40.9000 	    3.0000 	   12.0000 	   16.0805 
    3.1205 	   40.9540 	    3.0000 	   12.0000 	   16.1075 
    2.8611 	   41.0100 	    3.0000 	   12.0000 	   16.1355 
    3.0900 	   41.0640 	    3.0000 	   12.0000 	   16.1625 
    3.0900 	   41.1320 	    3.0000 	   12.0000 	   16.1965 
    3.1662 	   41.1940 	    3.0000 	   12.0000 	   16.2275 
    3.2273 	   41.2600 	    3.0000 	   12.0000 	   16.2605 
    3.0900 	   41.3260 	    3.0000 	   12.0000 	   16.2935 
    3.0900 	   41.3940 	    3.0000 	   12.0000 	   16.3275 
    3.1510 	   41.4600 	    3.0000 	   12.0000 	   16.3605 
    3.1968 	   41.5260 	    3.0000 	   12.0000 	   16.3935 
    3.2273 	   41.5880 	    3.0000 	   12.0000 	   16.4245 
    3.0747 	   41.6500 	    3.0000 	   12.0000 	   16.4555 
    3.1662 	   41.7160 	    3.0000 	   12.0000 	   16.4885 
    3.0442 	   41.7840 	    3.0000 	   12.0000 	   16.5225 
    3.1968 	   41.8520 	    3.0000 	   12.0000 	   16.5565 
    3.2425 	   41.9180 	    3.0000 	   12.0000 	   16.5895 
    3.1968 	   41.9820 	    3.0000 	   12.0000 	   16.6215 
    3.2120 	   42.0460 	    3.0000 	   12.0000 	   16.6535 
    3.1052 	   42.1120 	    3.0000 	   12.0000 	   16.6865 
    3.1205 	   42.1820 	    3.0000 	   12.0000 	   16.7215 
    3.1662 	   42.2480 	    3.0000 	   12.0000 	   16.7545 
    3.2273 	   42.3120 	    3.0000 	   12.0000 	   16.7865 
    3.2120 	   42.3740 	    3.0000 	   12.0000 	   16.8175 
    3.0747 	   42.4380 	    3.0000 	   12.0000 	   16.8496 
    2.8611 	   42.5040 	    3.0000 	   12.0000 	   16.8826 
    3.1968 	   42.5680 	    3.0000 	   12.0000 	   16.9146 
    3.2731 	   42.6300 	    3.0000 	   12.0000 	   16.9456 
    3.2425 	   42.6920 	    3.0000 	   12.0000 	   16.9766 
    3.2731 	   42.7500 	    3.0000 	   12.0000 	   17.0056 
    3.2578 	   42.8100 	    3.0000 	   12.0000 	   17.0356 
    3.3036 	   42.8680 	    3.0000 	   12.0000 	   17.0646 
    3.1815 	   42.9300 	    3.0000 	   12.0000 	   17.0956 
    3.2731 	   42.9940 	    3.0000 	   12.0000 	   17.1276 
    3.3341 	   43.0500 	    3.0000 	   12.0000 	   17.1556 
    3.2273 	   43.1100 	    3.0000 	   12.0000 	   17.1856 
    3.5019 	   43.1800 	    3.0000 	   12.0000 	   17.2206 
    3.0289 	   43.2460 	    3.0000 	   12.0000 	   17.2536 
    3.2731 	   43.3160 	    3.0000 	   12.0000 	   17.2886 
    3.3036 	   43.3820 	    3.0000 	   12.0000 	   17.3216 
    3.3494 	   43.4500 	    3.0000 	   12.0000 	   17.3556 
    2.9374 	   43.5200 	    3.0000 	   12.0000 	   17.3906 
    3.3036 	   43.5820 	    3.0000 	   12.0000 	   17.4216 
    3.3494 	   43.6520 	    3.0000 	   12.0000 	   17.4566 
    3.4104 	   43.7160 	    3.0000 	   12.0000 	   17.4886 
    3.3188 	   43.7820 	    3.0000 	   12.0000 	   17.5216 
    3.3494 	   43.8500 	    3.0000 	   12.0000 	   17.5556 
    3.2425 	   43.9200 	    3.0000 	   12.0000 	   17.5906 
    3.3341 	   43.9840 	    3.0000 	   12.0000 	   17.6226 
    3.2273 	   44.0480 	    3.0000 	   12.0000 	   17.6546 
    3.3646 	   44.1160 	    3.0000 	   12.0000 	   17.6886 
    3.3646 	   44.1840 	    3.0000 	   12.0000 	   17.7226 
    3.0289 	   44.2500 	    3.0000 	   12.0000 	   17.7556 
    3.2731 	   44.3160 	    3.0000 	   12.0000 	   17.7886 
    3.1968 	   44.3820 	    3.0000 	   12.0000 	   17.8216 
    3.3646 	   44.4520 	    3.0000 	   12.0000 	   17.8566 
    3.3646 	   44.5180 	    3.0000 	   12.0000 	   17.8896 
    3.3341 	   44.5840 	    3.0000 	   12.0000 	   17.9226 
    3.3799 	   44.6460 	    3.0000 	   12.0000 	   17.9536 
    3.2578 	   44.7060 	    3.0000 	   12.0000 	   17.9836 
    3.3341 	   44.7660 	    3.0000 	   12.0000 	   18.0136 
    3.2273 	   44.8240 	    3.0000 	   12.0000 	   18.0426 
    3.4409 	   44.8820 	    3.0000 	   12.0000 	   18.0716 
    3.3036 	   44.9400 	    3.0000 	   12.0000 	   18.1006 
    3.4409 	   44.9960 	    3.0000 	   12.0000 	   18.1286 
    3.5630 	   45.0540 	    3.0000 	   12.0000 	   18.1576 
    3.5325 	   45.1080 	    3.0000 	   12.0000 	   18.1846 
    3.3494 	   45.1700 	    3.0000 	   12.0000 	   18.2156 
    3.4409 	   45.2300 	    3.0000 	   12.0000 	   18.2456 
    3.6088 	   45.2880 	    3.0000 	   12.0000 	   18.2746 
    3.4257 	   45.3540 	    3.0000 	   12.0000 	   18.3076 
    3.4257 	   45.4260 	    3.0000 	   12.0000 	   18.3436 
    3.5325 	   45.4880 	    3.0000 	   12.0000 	   18.3746 
    3.6240 	   45.5520 	    3.0000 	   12.0000 	   18.4066 
    3.4409 	   45.6220 	    3.0000 	   12.0000 	   18.4416 
    3.5477 	   45.6900 	    3.0000 	   12.0000 	   18.4756 
    3.4867 	   45.7540 	    3.0000 	   12.0000 	   18.5076 
    3.3646 	   45.8220 	    3.0000 	   12.0000 	   18.5416 
    3.4562 	   45.8900 	    3.0000 	   12.0000 	   18.5756 
    3.4257 	   45.9500 	    3.0000 	   12.0000 	   18.6057 
    3.3646 	   46.0160 	    3.0000 	   12.0000 	   18.6387 
    3.4562 	   46.0800 	    3.0000 	   12.0000 	   18.6707 
    3.4257 	   46.1560 	    3.0000 	   12.0000 	   18.7087 
    3.4867 	   46.2240 	    3.0000 	   12.0000 	   18.7427 
    3.4562 	   46.2880 	    3.0000 	   12.0000 	   18.7747 
    3.4257 	   46.3540 	    3.0000 	   12.0000 	   18.8077 
    3.4867 	   46.4220 	    3.0000 	   12.0000 	   18.8417 
    3.4867 	   46.4860 	    3.0000 	   12.0000 	   18.8737 
    3.4562 	   46.5500 	    3.0000 	   12.0000 	   18.9057 
    3.6393 	   46.6120 	    3.0000 	   12.0000 	   18.9367 
    3.5935 	   46.6740 	    3.0000 	   12.0000 	   18.9677 
    3.5325 	   46.7320 	    3.0000 	   12.0000 	   18.9967 
    3.6851 	   46.7920 	    3.0000 	   12.0000 	   19.0267 
    3.6088 	   46.8500 	    3.0000 	   12.0000 	   19.0557 
    3.6088 	   46.9120 	    3.0000 	   12.0000 	   19.0867 
    3.6545 	   46.9740 	    3.0000 	   12.0000 	   19.1177 
    3.7003 	   47.0300 	    3.0000 	   12.0000 	   19.1457 
    3.6088 	   47.0880 	    3.0000 	   12.0000 	   19.1747 
    3.3341 	   47.2120 	    3.0000 	   12.0000 	   19.2367 
    3.5172 	   47.2780 	    3.0000 	   12.0000 	   19.2697 
    3.5019 	   47.3380 	    3.0000 	   12.0000 	   19.2997 
    3.6545 	   47.3980 	    3.0000 	   12.0000 	   19.3297 
    3.7919 	   47.4560 	    3.0000 	   12.0000 	   19.3587 
    3.5172 	   47.5120 	    3.0000 	   12.0000 	   19.3867 
    3.6545 	   47.5760 	    3.0000 	   12.0000 	   19.4187 
    3.6698 	   47.6380 	    3.0000 	   12.0000 	   19.4497 
    3.4257 	   47.6980 	    3.0000 	   12.0000 	   19.4787 
    3.6545 	   47.7620 	    3.0000 	   12.0000 	   19.5117 
    3.6240 	   47.8300 	    3.0000 	   12.0000 	   19.5457 
    3.7766 	   47.8940 	    3.0000 	   12.0000 	   19.5777 
    3.8376 	   47.9580 	    3.0000 	   12.0000 	   19.6097 
    3.6393 	   48.0260 	    3.0000 	   12.0000 	   19.6437 
    3.7308 	   48.0940 	    3.0000 	   12.0000 	   19.6777 
    3.7613 	   48.1680 	    3.0000 	   12.0000 	   19.7147 
    3.7919 	   48.2320 	    3.0000 	   12.0000 	   19.7467 
    3.7919 	   48.3000 	    3.0000 	   12.0000 	   19.7807 
    3.5935 	   48.3640 	    3.0000 	   12.0000 	   19.8127 
    3.8529 	   48.4260 	    3.0000 	   12.0000 	   19.8437 
    3.7613 	   48.4900 	    3.0000 	   12.0000 	   19.8757 
    3.7461 	   48.5520 	    3.0000 	   12.0000 	   19.9067 
    3.9139 	   48.6180 	    3.0000 	   12.0000 	   19.9397 
    3.6545 	   48.6800 	    3.0000 	   12.0000 	   19.9707 
    3.7156 	   48.7520 	    3.0000 	   12.0000 	   20.0067 
    3.7919 	   48.8160 	    3.0000 	   12.0000 	   20.0387 
    3.7461 	   48.8760 	    3.0000 	   12.0000 	   20.0687 
    3.8376 	   48.9340 	    3.0000 	   12.0000 	   20.0977 
    3.7766 	   48.9940 	    3.0000 	   12.0000 	   20.1277 
    3.8376 	   49.0520 	    3.0000 	   12.0000 	   20.1567 
    3.8376 	   49.1100 	    3.0000 	   12.0000 	   20.1857 
    3.9292 	   49.1740 	    3.0000 	   12.0000 	   20.2177 
    3.9597 	   49.2380 	    3.0000 	   12.0000 	   20.2497 
    3.9445 	   49.3040 	    3.0000 	   12.0000 	   20.2827 
    3.8071 	   49.3720 	    3.0000 	   12.0000 	   20.3167 
    3.7003 	   49.4320 	    3.0000 	   12.0000 	   20.3468 
    3.7919 	   49.5000 	    3.0000 	   12.0000 	   20.3808 
    3.8834 	   49.5660 	    3.0000 	   12.0000 	   20.4138 
    4.0055 	   49.6300 	    3.0000 	   12.0000 	   20.4458 
    4.0055 	   49.6980 	    3.0000 	   12.0000 	   20.4798 
    3.8987 	   49.7720 	    3.0000 	   12.0000 	   20.5168 
    3.9597 	   49.8380 	    3.0000 	   12.0000 	   20.5498 
    3.9597 	   49.9040 	    3.0000 	   12.0000 	   20.5828 
    3.9902 	   49.9680 	    3.0000 	   12.0000 	   20.6148 
    3.9139 	   50.0560 	    3.0000 	   12.0000 	   20.6588 
    4.0360 	   50.1180 	    3.0000 	   12.0000 	   20.6898 
    3.9597 	   50.1860 	    3.0000 	   12.0000 	   20.7238 
    3.8834 	   50.2500 	    3.0000 	   12.0000 	   20.7558 
    3.9445 	   50.3180 	    3.0000 	   12.0000 	   20.7898 
    4.0208 	   50.3820 	    3.0000 	   12.0000 	   20.8218 
    3.8682 	   50.4500 	    3.0000 	   12.0000 	   20.8558 
    4.0665 	   50.5200 	    3.0000 	   12.0000 	   20.8908 
    4.0818 	   50.5840 	    3.0000 	   12.0000 	   20.9228 
    3.9445 	   50.6460 	    3.0000 	   12.0000 	   20.9538 
    3.8224 	   50.7100 	    3.0000 	   12.0000 	   20.9858 
    4.1733 	   50.7680 	    3.0000 	   12.0000 	   21.0148 
    4.0970 	   50.8260 	    3.0000 	   12.0000 	   21.0438 
    4.0970 	   50.8920 	    3.0000 	   12.0000 	   21.0768 
    3.9597 	   50.9460 	    3.0000 	   12.0000 	   21.1038 
    4.2039 	   51.0080 	    3.0000 	   12.0000 	   21.1348 
    4.0513 	   51.0640 	    3.0000 	   12.0000 	   21.1628 
    4.0513 	   51.1880 	    3.0000 	   12.0000 	   21.2248 
    4.1428 	   51.2440 	    3.0000 	   12.0000 	   21.2528 
    4.1123 	   51.3020 	    3.0000 	   12.0000 	   21.2818 
    4.0208 	   51.3660 	    3.0000 	   12.0000 	   21.3138 
    4.0665 	   51.4300 	    3.0000 	   12.0000 	   21.3458 
    4.2649 	   51.4980 	    3.0000 	   12.0000 	   21.3798 
    3.9292 	   51.5640 	    3.0000 	   12.0000 	   21.4128 
    4.1123 	   51.6320 	    3.0000 	   12.0000 	   21.4468 
    4.0513 	   51.6980 	    3.0000 	   12.0000 	   21.4798 
    4.0360 	   51.7620 	    3.0000 	   12.0000 	   21.5118 
    4.0970 	   51.8300 	    3.0000 	   12.0000 	   21.5458 
    4.0665 	   51.8960 	    3.0000 	   12.0000 	   21.5788 
    4.2039 	   51.9620 	    3.0000 	   12.0000 	   21.6118 
    4.1123 	   52.0280 	    3.0000 	   12.0000 	   21.6448 
    4.2954 	   52.0940 	    3.0000 	   12.0000 	   21.6778 
    4.2039 	   52.1700 	    3.0000 	   12.0000 	   21.7158 
    4.3107 	   52.2380 	    3.0000 	   12.0000 	   21.7488 
    4.0665 	   52.3040 	    3.0000 	   12.0000 	   21.7828 
    4.1886 	   52.3760 	    3.0000 	   12.0000 	   21.8188 
    3.8529 	   52.4460 	    3.0000 	   12.0000 	   21.8538 
    4.1428 	   52.5120 	    3.0000 	   12.0000 	   21.8868 
    4.2344 	   52.5820 	    3.0000 	   12.0000 	   21.9218 
    4.1733 	   52.6500 	    3.0000 	   12.0000 	   21.9558 
    4.1581 	   52.7120 	    3.0000 	   12.0000 	   21.9868 
    4.4633 	   52.7720 	    3.0000 	   12.0000 	   22.0168 
    4.2191 	   52.8360 	    3.0000 	   12.0000 	   22.0488 
    4.2191 	   52.9060 	    3.0000 	   12.0000 	   22.0839 
    4.2191 	   52.9660 	    3.0000 	   12.0000 	   22.1139 
    4.3107 	   53.0260 	    3.0000 	   12.0000 	   22.1439 
    4.3412 	   53.0840 	    3.0000 	   12.0000 	   22.1729 
    4.4327 	   53.1480 	    3.0000 	   12.0000 	   22.2049 
    4.2039 	   53.2080 	    3.0000 	   12.0000 	   22.2349 
    4.1886 	   53.2660 	    3.0000 	   12.0000 	   22.2639 
    4.2649 	   53.3240 	    3.0000 	   12.0000 	   22.2929 
    4.2954 	   53.3840 	    3.0000 	   12.0000 	   22.3229 
    4.2649 	   53.4500 	    3.0000 	   12.0000 	   22.3559 
    4.3412 	   53.5200 	    3.0000 	   12.0000 	   22.3909 
    4.4633 	   53.5860 	    3.0000 	   12.0000 	   22.4239 
    4.3412 	   53.6480 	    3.0000 	   12.0000 	   22.4549 
    4.2496 	   53.7140 	    3.0000 	   12.0000 	   22.4879 
    4.2649 	   53.7820 	    3.0000 	   12.0000 	   22.5219 
    4.4175 	   53.8520 	    3.0000 	   12.0000 	   22.5569 
    4.4022 	   53.9180 	    3.0000 	   12.0000 	   22.5899 
    4.2649 	   53.9840 	    3.0000 	   12.0000 	   22.6229 
    4.2802 	   54.0500 	    3.0000 	   12.0000 	   22.6559 
    4.5853 	   54.1160 	    3.0000 	   12.0000 	   22.6889 
    4.2802 	   54.1820 	    3.0000 	   12.0000 	   22.7219 
    4.2802 	   54.2620 	    3.0000 	   12.0000 	   22.7619 
    4.2802 	   54.3240 	    3.0000 	   12.0000 	   22.7929 
    4.4785 	   54.3840 	    3.0000 	   12.0000 	   22.8229 
    4.4938 	   54.4420 	    3.0000 	   12.0000 	   22.8519 
    4.3412 	   54.5060 	    3.0000 	   12.0000 	   22.8839 
    4.4480 	   54.5700 	    3.0000 	   12.0000 	   22.9159 
    4.5243 	   54.6360 	    3.0000 	   12.0000 	   22.9489 
    4.4022 	   54.6960 	    3.0000 	   12.0000 	   22.9789 
    4.6921 	   54.7560 	    3.0000 	   12.0000 	   23.0089 
    4.4938 	   54.8180 	    3.0000 	   12.0000 	   23.0399 
    4.5090 	   54.8820 	    3.0000 	   12.0000 	   23.0719 
    4.4480 	   54.9420 	    3.0000 	   12.0000 	   23.1019 
    4.5548 	   55.0000 	    3.0000 	   12.0000 	   23.1309 
    4.6921 	   55.0580 	    3.0000 	   12.0000 	   23.1599 
    4.5853 	   55.1200 	    3.0000 	   12.0000 	   23.1909 
    4.5548 	   55.1780 	    3.0000 	   12.0000 	   23.2199 
    4.6464 	   55.2340 	    3.0000 	   12.0000 	   23.2479 
    4.6464 	   55.2920 	    3.0000 	   12.0000 	   23.2769 
    4.4938 	   55.3500 	    3.0000 	   12.0000 	   23.3059 
    4.6921 	   55.4120 	    3.0000 	   12.0000 	   23.3369 
    4.6769 	   55.4720 	    3.0000 	   12.0000 	   23.3669 
    4.4480 	   55.5300 	    3.0000 	   12.0000 	   23.3959 
    4.7684 	   55.5860 	    3.0000 	   12.0000 	   23.4239 
    4.6311 	   55.6500 	    3.0000 	   12.0000 	   23.4559 
    4.6006 	   55.7260 	    3.0000 	   12.0000 	   23.4939 
    4.5090 	   55.7820 	    3.0000 	   12.0000 	   23.5219 
    4.6616 	   55.8460 	    3.0000 	   12.0000 	   23.5539 
    4.5853 	   55.9100 	    3.0000 	   12.0000 	   23.5859 
    4.7532 	   55.9780 	    3.0000 	   12.0000 	   23.6199 
    4.6921 	   56.0460 	    3.0000 	   12.0000 	   23.6539 
    4.6769 	   56.1140 	    3.0000 	   12.0000 	   23.6879 
    4.6921 	   56.1900 	    3.0000 	   12.0000 	   23.7259 
    4.7379 	   56.2560 	    3.0000 	   12.0000 	   23.7589 
    4.7990 	   56.3220 	    3.0000 	   12.0000 	   23.7919 
    4.6464 	   56.3860 	    3.0000 	   12.0000 	   23.8239 
    4.6921 	   56.4540 	    3.0000 	   12.0000 	   23.8580 
    4.7837 	   56.5160 	    3.0000 	   12.0000 	   23.8890 
    4.8905 	   56.5900 	    3.0000 	   12.0000 	   23.9260 
    4.8142 	   56.6520 	    3.0000 	   12.0000 	   23.9570 
    4.6921 	   56.7240 	    3.0000 	   12.0000 	   23.9930 
    4.9973 	   56.7840 	    3.0000 	   12.0000 	   24.0230 
    4.8447 	   56.8480 	    3.0000 	   12.0000 	   24.0550 
    4.5853 	   56.9180 	    3.0000 	   12.0000 	   24.0900 
    4.7074 	   56.9780 	    3.0000 	   12.0000 	   24.1200 
    4.7074 	   57.0380 	    3.0000 	   12.0000 	   24.1500 
    4.8753 	   57.0980 	    3.0000 	   12.0000 	   24.1800 
    4.7990 	   57.1660 	    3.0000 	   12.0000 	   24.2140 
    4.8447 	   57.2300 	    3.0000 	   12.0000 	   24.2460 
    4.9516 	   57.2960 	    3.0000 	   12.0000 	   24.2790 
    4.9058 	   57.3660 	    3.0000 	   12.0000 	   24.3140 
    5.0278 	   57.4300 	    3.0000 	   12.0000 	   24.3460 
    5.0278 	   57.5000 	    3.0000 	   12.0000 	   24.3810 
    5.1041 	   57.5720 	    3.0000 	   12.0000 	   24.4170 
    4.9668 	   57.6420 	    3.0000 	   12.0000 	   24.4520 
    4.7837 	   57.7160 	    3.0000 	   12.0000 	   24.4890 
    4.8905 	   57.7880 	    3.0000 	   12.0000 	   24.5250 
    4.5853 	   57.8500 	    3.0000 	   12.0000 	   24.5560 
    5.0584 	   57.9200 	    3.0000 	   12.0000 	   24.5910 
    4.9516 	   57.9860 	    3.0000 	   12.0000 	   24.6240 
    5.1194 	   58.0560 	    3.0000 	   12.0000 	   24.6590 
    4.8295 	   58.1260 	    3.0000 	   12.0000 	   24.6940 
    5.0736 	   58.2040 	    3.0000 	   12.0000 	   24.7330 
    4.9821 	   58.2640 	    3.0000 	   12.0000 	   24.7630 
    5.0889 	   58.3300 	    3.0000 	   12.0000 	   24.7960 
    5.0889 	   58.3920 	    3.0000 	   12.0000 	   24.8270 
    5.2873 	   58.4600 	    3.0000 	   12.0000 	   24.8600 
    5.1194 	   58.5280 	    3.0000 	   12.0000 	   24.8940 
    5.2262 	   58.6000 	    3.0000 	   12.0000 	   24.9300 
    5.2110 	   58.6620 	    3.0000 	   12.0000 	   24.9610 
    5.2262 	   58.7200 	    3.0000 	   12.0000 	   24.9900 
    5.1652 	   58.7820 	    3.0000 	   12.0000 	   25.0210 
    5.1957 	   58.8420 	    3.0000 	   12.0000 	   25.0510 
    5.1652 	   58.9020 	    3.0000 	   12.0000 	   25.0810 
    5.2110 	   58.9580 	    3.0000 	   12.0000 	   25.1090 
    4.9973 	   59.0180 	    3.0000 	   12.0000 	   25.1390 
    5.1957 	   59.0780 	    3.0000 	   12.0000 	   25.1690 
    5.1652 	   59.1420 	    3.0000 	   12.0000 	   25.2010 
    5.2110 	   59.1980 	    3.0000 	   12.0000 	   25.2290 
    5.2567 	   59.2600 	    3.0000 	   12.0000 	   25.2600 
    5.1499 	   59.3280 	    3.0000 	   12.0000 	   25.2940 
    5.3330 	   59.3900 	    3.0000 	   12.0000 	   25.3250 
    5.3330 	   59.4580 	    3.0000 	   12.0000 	   25.3590 
    5.3941 	   59.5360 	    3.0000 	   12.0000 	   25.3980 
    5.4246 	   59.6000 	    3.0000 	   12.0000 	   25.4300 
    5.2720 	   59.6640 	    3.0000 	   12.0000 	   25.4620 
    5.4093 	   59.7380 	    3.0000 	   12.0000 	   25.4990 
    5.4398 	   59.8040 	    3.0000 	   12.0000 	   25.5320 
    5.3941 	   59.8680 	    3.0000 	   12.0000 	   25.5640 
    5.5161 	   59.9320 	    3.0000 	   12.0000 	   25.5961 
    5.4856 	   60.0000 	    3.0000 	   12.0000 	   25.6301 
    5.3941 	   60.0760 	    3.0000 	   12.0000 	   25.6681 
    5.2262 	   60.1520 	    3.0000 	   12.0000 	   25.7061 
    5.1652 	   60.2200 	    3.0000 	   12.0000 	   25.7401 
    5.0126 	   60.2900 	    3.0000 	   12.0000 	   25.7751 
    5.0736 	   60.3560 	    3.0000 	   12.0000 	   25.8081 
    4.9516 	   60.4280 	    3.0000 	   12.0000 	   25.8441 
    4.9821 	   60.4900 	    3.0000 	   12.0000 	   25.8751 
    4.8753 	   60.5560 	    3.0000 	   12.0000 	   25.9081 
    4.8905 	   60.6220 	    3.0000 	   12.0000 	   25.9411 
    5.0584 	   60.6880 	    3.0000 	   12.0000 	   25.9741 
    4.7837 	   60.7480 	    3.0000 	   12.0000 	   26.0041 
    4.5090 	   60.8120 	    3.0000 	   12.0000 	   26.0361 
    4.7837 	   60.8760 	    3.0000 	   12.0000 	   26.0681 
    4.6921 	   60.9360 	    3.0000 	   12.0000 	   26.0981 
    4.6464 	   60.9960 	    3.0000 	   12.0000 	   26.1281 
    4.7227 	   61.0580 	    3.0000 	   12.0000 	   26.1591 
    4.6464 	   61.1180 	    3.0000 	   12.0000 	   26.1891 
    4.6006 	   61.1900 	    3.0000 	   12.0000 	   26.2251 
    4.5396 	   61.2600 	    3.0000 	   12.0000 	   26.2601 
    4.5396 	   61.3240 	    3.0000 	   12.0000 	   26.2921 
    4.4327 	   61.3860 	    3.0000 	   12.0000 	   26.3231 
    4.8753 	   61.4580 	    3.0000 	   12.0000 	   26.3591 
    4.4175 	   61.5220 	    3.0000 	   12.0000 	   26.3911 
    4.4022 	   61.5900 	    3.0000 	   12.0000 	   26.4251 
    4.3259 	   61.6560 	    3.0000 	   12.0000 	   26.4581 
    4.2496 	   61.7240 	    3.0000 	   12.0000 	   26.4921 
    4.3259 	   61.7920 	    3.0000 	   12.0000 	   26.5261 
    4.2802 	   61.8600 	    3.0000 	   12.0000 	   26.5601 
    4.4327 	   61.9240 	    3.0000 	   12.0000 	   26.5921 
    4.1886 	   61.9940 	    3.0000 	   12.0000 	   26.6271 
    3.9597 	   62.0600 	    3.0000 	   12.0000 	   26.6601 
    4.2344 	   62.1220 	    3.0000 	   12.0000 	   26.6911 
    4.3412 	   62.1960 	    3.0000 	   12.0000 	   26.7281 
    4.1886 	   62.2560 	    3.0000 	   12.0000 	   26.7581 
    4.3107 	   62.3160 	    3.0000 	   12.0000 	   26.7881 
    4.0970 	   62.3760 	    3.0000 	   12.0000 	   26.8181 
    4.1886 	   62.4400 	    3.0000 	   12.0000 	   26.8501 
    4.1733 	   62.5080 	    3.0000 	   12.0000 	   26.8841 
    4.1276 	   62.5720 	    3.0000 	   12.0000 	   26.9161 
    4.1886 	   62.6460 	    3.0000 	   12.0000 	   26.9531 
    3.9597 	   62.7100 	    3.0000 	   12.0000 	   26.9851 
    3.7919 	   62.7800 	    3.0000 	   12.0000 	   27.0201 
    4.0970 	   62.8440 	    3.0000 	   12.0000 	   27.0521 
    4.0055 	   62.9060 	    3.0000 	   12.0000 	   27.0831 
    4.0513 	   62.9680 	    3.0000 	   12.0000 	   27.1141 
    3.9445 	   63.0300 	    3.0000 	   12.0000 	   27.1451 
    3.9445 	   63.0880 	    3.0000 	   12.0000 	   27.1741 
    4.0055 	   63.1560 	    3.0000 	   12.0000 	   27.2081 
    3.8529 	   63.2160 	    3.0000 	   12.0000 	   27.2381 
    3.5935 	   63.2800 	    3.0000 	   12.0000 	   27.2701 
    3.9292 	   63.3460 	    3.0000 	   12.0000 	   27.3031 
    3.8071 	   63.4100 	    3.0000 	   12.0000 	   27.3352 
    3.8071 	   63.4780 	    3.0000 	   12.0000 	   27.3692 
    3.9445 	   63.5480 	    3.0000 	   12.0000 	   27.4042 
    3.7919 	   63.6220 	    3.0000 	   12.0000 	   27.4412 
    3.8376 	   63.6900 	    3.0000 	   12.0000 	   27.4752 
    3.7156 	   63.7580 	    3.0000 	   12.0000 	   27.5092 
    3.7003 	   63.8240 	    3.0000 	   12.0000 	   27.5422 
    3.7003 	   63.8940 	    3.0000 	   12.0000 	   27.5772 
    3.7613 	   63.9620 	    3.0000 	   12.0000 	   27.6112 
    3.7461 	   64.0260 	    3.0000 	   12.0000 	   27.6432 
    3.6393 	   64.0960 	    3.0000 	   12.0000 	   27.6782 
    3.6545 	   64.1700 	    3.0000 	   12.0000 	   27.7152 
    3.7919 	   64.2360 	    3.0000 	   12.0000 	   27.7482 
    3.6240 	   64.3000 	    3.0000 	   12.0000 	   27.7802 
    3.6545 	   64.3640 	    3.0000 	   12.0000 	   27.8122 
    3.6851 	   64.4260 	    3.0000 	   12.0000 	   27.8432 
    3.6240 	   64.4940 	    3.0000 	   12.0000 	   27.8772 
    3.6698 	   64.5640 	    3.0000 	   12.0000 	   27.9122 
    3.5630 	   64.6320 	    3.0000 	   12.0000 	   27.9462 
    3.6393 	   64.6960 	    3.0000 	   12.0000 	   27.9782 
    3.6393 	   64.7640 	    3.0000 	   12.0000 	   28.0122 
    3.5782 	   64.8260 	    3.0000 	   12.0000 	   28.0422 
    3.5935 	   64.8880 	    3.0000 	   12.0000 	   28.0742 
    3.5019 	   64.9480 	    3.0000 	   12.0000 	   28.1042 
    3.5782 	   65.0100 	    3.0000 	   12.0000 	   28.1352 
    3.4409 	   65.0720 	    3.0000 	   12.0000 	   28.1662 
    3.5172 	   65.1300 	    3.0000 	   12.0000 	   28.1952 
    3.4867 	   65.1900 	    3.0000 	   12.0000 	   28.2252 
    3.5477 	   65.2520 	    3.0000 	   12.0000 	   28.2562 
    3.4714 	   65.3100 	    3.0000 	   12.0000 	   28.2852 
    3.4257 	   65.3700 	    3.0000 	   12.0000 	   28.3152 
    3.4867 	   65.4320 	    3.0000 	   12.0000 	   28.3462 
    3.0747 	   65.5000 	    3.0000 	   12.0000 	   28.3802 
    3.3951 	   65.5640 	    3.0000 	   12.0000 	   28.4122 
    3.4867 	   65.6320 	    3.0000 	   12.0000 	   28.4462 
    3.3494 	   65.6980 	    3.0000 	   12.0000 	   28.4792 
    3.2273 	   65.7640 	    3.0000 	   12.0000 	   28.5122 
    3.3036 	   65.8260 	    3.0000 	   12.0000 	   28.5432 
    3.3799 	   65.8960 	    3.0000 	   12.0000 	   28.5782 
    3.2731 	   65.9620 	    3.0000 	   12.0000 	   28.6112 
    3.4562 	   66.0560 	    3.0000 	   12.0000 	   28.6582 
    3.3646 	   66.1200 	    3.0000 	   12.0000 	   28.6902 
    3.3188 	   66.1920 	    3.0000 	   12.0000 	   28.7262 
    3.2731 	   66.2620 	    3.0000 	   12.0000 	   28.7612 
    3.3646 	   66.3300 	    3.0000 	   12.0000 	   28.7952 
    3.3646 	   66.3940 	    3.0000 	   12.0000 	   28.8272 
    3.3799 	   66.4680 	    3.0000 	   12.0000 	   28.8642 
    2.9984 	   66.5360 	    3.0000 	   12.0000 	   28.8982 
    3.2425 	   66.6040 	    3.0000 	   12.0000 	   28.9322 
    3.2883 	   66.6700 	    3.0000 	   12.0000 	   28.9652 
    3.2273 	   66.7300 	    3.0000 	   12.0000 	   28.9952 
    3.3494 	   66.7920 	    3.0000 	   12.0000 	   29.0262 
    3.2425 	   66.8540 	    3.0000 	   12.0000 	   29.0572 
    3.1968 	   66.9140 	    3.0000 	   12.0000 	   29.0873 
    3.1357 	   66.9780 	    3.0000 	   12.0000 	   29.1193 
    3.1510 	   67.0400 	    3.0000 	   12.0000 	   29.1503 
    2.8611 	   67.1020 	    3.0000 	   12.0000 	   29.1813 
    3.0594 	   67.1600 	    3.0000 	   12.0000 	   29.2103 
    2.9068 	   67.2200 	    3.0000 	   12.0000 	   29.2403 
    3.3341 	   67.2780 	    3.0000 	   12.0000 	   29.2693 
    3.0289 	   67.3400 	    3.0000 	   12.0000 	   29.3003 
    3.2273 	   67.4020 	    3.0000 	   12.0000 	   29.3313 
    2.9984 	   67.4620 	    3.0000 	   12.0000 	   29.3613 
    3.0289 	   67.5260 	    3.0000 	   12.0000 	   29.3933 
    2.9984 	   67.5980 	    3.0000 	   12.0000 	   29.4293 
    3.0594 	   67.6620 	    3.0000 	   12.0000 	   29.4613 
    2.9984 	   67.7240 	    3.0000 	   12.0000 	   29.4923 
    3.0900 	   67.7940 	    3.0000 	   12.0000 	   29.5273 
    3.2120 	   67.8680 	    3.0000 	   12.0000 	   29.5643 
    2.9374 	   67.9340 	    3.0000 	   12.0000 	   29.5973 
    3.0747 	   68.0020 	    3.0000 	   12.0000 	   29.6313 
    3.1205 	   68.0700 	    3.0000 	   12.0000 	   29.6653 
    3.1968 	   68.1420 	    3.0000 	   12.0000 	   29.7013 
    3.0900 	   68.2120 	    3.0000 	   12.0000 	   29.7363 
    3.2273 	   68.2820 	    3.0000 	   12.0000 	   29.7713 
    3.0442 	   68.3500 	    3.0000 	   12.0000 	   29.8053 
    2.9831 	   68.4160 	    3.0000 	   12.0000 	   29.8383 
    2.9831 	   68.4880 	    3.0000 	   12.0000 	   29.8743 
    2.8153 	   68.5540 	    3.0000 	   12.0000 	   29.9073 
    2.9984 	   68.6220 	    3.0000 	   12.0000 	   29.9413 
    2.9221 	   68.6920 	    3.0000 	   12.0000 	   29.9763 
    3.0900 	   68.7540 	    3.0000 	   12.0000 	   30.0073 
    2.9374 	   68.8160 	    3.0000 	   12.0000 	   30.0383 
    2.9374 	   68.8800 	    3.0000 	   12.0000 	   30.0703 
    2.9831 	   68.9460 	    3.0000 	   12.0000 	   30.1033 
    2.8763 	   69.0060 	    3.0000 	   12.0000 	   30.1333 
    2.9374 	   69.0680 	    3.0000 	   12.0000 	   30.1643 
    2.8763 	   69.1260 	    3.0000 	   12.0000 	   30.1933 
    2.9374 	   69.1880 	    3.0000 	   12.0000 	   30.2243 
    2.9679 	   69.2500 	    3.0000 	   12.0000 	   30.2553 
    2.8458 	   69.3160 	    3.0000 	   12.0000 	   30.2883 
    2.8611 	   69.3920 	    3.0000 	   12.0000 	   30.3263 
    3.0289 	   69.4640 	    3.0000 	   12.0000 	   30.3623 
    3.0137 	   69.5320 	    3.0000 	   12.0000 	   30.3963 
    2.8763 	   69.6000 	    3.0000 	   12.0000 	   30.4303 
    2.8458 	   69.6680 	    3.0000 	   12.0000 	   30.4643 
    2.7543 	   69.7320 	    3.0000 	   12.0000 	   30.4963 
    3.0137 	   69.8000 	    3.0000 	   12.0000 	   30.5303 
    3.0594 	   69.8680 	    3.0000 	   12.0000 	   30.5643 
    2.7848 	   69.9340 	    3.0000 	   12.0000 	   30.5973 
    2.7695 	   70.0000 	    3.0000 	   12.0000 	   30.6303 
    2.8611 	   70.0660 	    3.0000 	   12.0000 	   30.6633 
    2.9526 	   70.1280 	    3.0000 	   12.0000 	   30.6943 
    2.8916 	   70.2040 	    3.0000 	   12.0000 	   30.7323 
    2.7390 	   70.2700 	    3.0000 	   12.0000 	   30.7653 
    2.7848 	   70.3360 	    3.0000 	   12.0000 	   30.7983 
    2.8763 	   70.4000 	    3.0000 	   12.0000 	   30.8304 
    2.6017 	   70.4660 	    3.0000 	   12.0000 	   30.8634 
    2.7237 	   70.5360 	    3.0000 	   12.0000 	   30.8984 
    2.7543 	   70.6060 	    3.0000 	   12.0000 	   30.9334 
    2.4948 	   70.6740 	    3.0000 	   12.0000 	   30.9674 
    2.7085 	   70.7400 	    3.0000 	   12.0000 	   31.0004 
    2.8000 	   70.8040 	    3.0000 	   12.0000 	   31.0324 
    2.7543 	   70.8680 	    3.0000 	   12.0000 	   31.0644 
    2.6322 	   70.9280 	    3.0000 	   12.0000 	   31.0944 
    2.6627 	   70.9920 	    3.0000 	   12.0000 	   31.1264 
    2.7848 	   71.0540 	    3.0000 	   12.0000 	   31.1574 
    2.6169 	   71.1140 	    3.0000 	   12.0000 	   31.1874 
    2.6474 	   71.1780 	    3.0000 	   12.0000 	   31.2194 
    2.7695 	   71.2420 	    3.0000 	   12.0000 	   31.2514 
    2.7085 	   71.3100 	    3.0000 	   12.0000 	   31.2854 
    2.7695 	   71.3760 	    3.0000 	   12.0000 	   31.3184 
    2.4491 	   71.4460 	    3.0000 	   12.0000 	   31.3534 
    2.6169 	   71.5180 	    3.0000 	   12.0000 	   31.3894 
    2.6627 	   71.5880 	    3.0000 	   12.0000 	   31.4244 
    2.6322 	   71.6580 	    3.0000 	   12.0000 	   31.4594 
    2.7085 	   71.7300 	    3.0000 	   12.0000 	   31.4954 
    2.2507 	   71.7940 	    3.0000 	   12.0000 	   31.5274 
    2.5864 	   71.8560 	    3.0000 	   12.0000 	   31.5584 
    2.6932 	   71.9200 	    3.0000 	   12.0000 	   31.5904 
    2.8000 	   71.9900 	    3.0000 	   12.0000 	   31.6254 
    2.5864 	   72.0600 	    3.0000 	   12.0000 	   31.6604 
    2.5711 	   72.1260 	    3.0000 	   12.0000 	   31.6934 
    2.5711 	   72.2060 	    3.0000 	   12.0000 	   31.7334 
    2.6322 	   72.2760 	    3.0000 	   12.0000 	   31.7684 
    2.6017 	   72.3460 	    3.0000 	   12.0000 	   31.8034 
    2.5711 	   72.4180 	    3.0000 	   12.0000 	   31.8394 
    2.6322 	   72.4820 	    3.0000 	   12.0000 	   31.8714 
    2.5711 	   72.5540 	    3.0000 	   12.0000 	   31.9074 
    2.6474 	   72.6240 	    3.0000 	   12.0000 	   31.9424 
    2.5711 	   72.6940 	    3.0000 	   12.0000 	   31.9774 
    2.6322 	   72.7600 	    3.0000 	   12.0000 	   32.0104 
    2.5711 	   72.8260 	    3.0000 	   12.0000 	   32.0434 
    2.4491 	   72.8900 	    3.0000 	   12.0000 	   32.0754 
    2.5406 	   72.9540 	    3.0000 	   12.0000 	   32.1074 
    2.5101 	   73.0160 	    3.0000 	   12.0000 	   32.1384 
    2.4796 	   73.0780 	    3.0000 	   12.0000 	   32.1694 
    2.4643 	   73.1440 	    3.0000 	   12.0000 	   32.2024 
    2.6169 	   73.2060 	    3.0000 	   12.0000 	   32.2334 
    2.5254 	   73.2660 	    3.0000 	   12.0000 	   32.2634 
    2.5711 	   73.3320 	    3.0000 	   12.0000 	   32.2964 
    2.6627 	   73.4000 	    3.0000 	   12.0000 	   32.3304 
    2.5254 	   73.4700 	    3.0000 	   12.0000 	   32.3654 
    2.4491 	   73.5380 	    3.0000 	   12.0000 	   32.3994 
    2.5254 	   73.6040 	    3.0000 	   12.0000 	   32.4324 
    2.5254 	   73.6720 	    3.0000 	   12.0000 	   32.4664 
    2.4643 	   73.7440 	    3.0000 	   12.0000 	   32.5024 
    2.5559 	   73.8140 	    3.0000 	   12.0000 	   32.5374 
    2.5254 	   73.8840 	    3.0000 	   12.0000 	   32.5724 
    2.6169 	   73.9580 	    3.0000 	   12.0000 	   32.6095 
    2.2812 	   74.0560 	    3.0000 	   12.0000 	   32.6585 
    2.1897 	   74.1220 	    3.0000 	   12.0000 	   32.6915 
    2.3270 	   74.2000 	    3.0000 	   12.0000 	   32.7305 
    2.3575 	   74.2660 	    3.0000 	   12.0000 	   32.7635 
    2.4491 	   74.3340 	    3.0000 	   12.0000 	   32.7975 
    2.4948 	   74.4000 	    3.0000 	   12.0000 	   32.8305 
    2.4643 	   74.4720 	    3.0000 	   12.0000 	   32.8665 
    2.4643 	   74.5380 	    3.0000 	   12.0000 	   32.8995 
    2.3880 	   74.6040 	    3.0000 	   12.0000 	   32.9325 
    2.4186 	   74.6740 	    3.0000 	   12.0000 	   32.9675 
    2.5101 	   74.7420 	    3.0000 	   12.0000 	   33.0015 
    2.3880 	   74.8040 	    3.0000 	   12.0000 	   33.0325 
    2.3423 	   74.8680 	    3.0000 	   12.0000 	   33.0645 
    2.4186 	   74.9280 	    3.0000 	   12.0000 	   33.0945 
    2.5864 	   74.9900 	    3.0000 	   12.0000 	   33.1255 
    2.4643 	   75.0520 	    3.0000 	   12.0000 	   33.1565 
    2.4186 	   75.1120 	    3.0000 	   12.0000 	   33.1865 
    2.2965 	   75.1760 	    3.0000 	   12.0000 	   33.2185 
    2.3423 	   75.2340 	    3.0000 	   12.0000 	   33.2475 
    2.2812 	   75.2940 	    3.0000 	   12.0000 	   33.2775 
    2.3270 	   75.3520 	    3.0000 	   12.0000 	   33.3065 
    2.3728 	   75.4120 	    3.0000 	   12.0000 	   33.3365 
    2.2812 	   75.4820 	    3.0000 	   12.0000 	   33.3715 
    2.5101 	   75.5540 	    3.0000 	   12.0000 	   33.4075 
    2.3575 	   75.6260 	    3.0000 	   12.0000 	   33.4435 
    2.3728 	   75.6880 	    3.0000 	   12.0000 	   33.4745 
    2.2965 	   75.7520 	    3.0000 	   12.0000 	   33.5065 
    2.3880 	   75.8120 	    3.0000 	   12.0000 	   33.5365 
    2.2965 	   75.8720 	    3.0000 	   12.0000 	   33.5665 
    2.1744 	   75.9320 	    3.0000 	   12.0000 	   33.5965 
    2.4033 	   76.0000 	    3.0000 	   12.0000 	   33.6305 
    2.3423 	   76.0680 	    3.0000 	   12.0000 	   33.6645 
    2.1439 	   76.1380 	    3.0000 	   12.0000 	   33.6995 
    2.3728 	   76.2120 	    3.0000 	   12.0000 	   33.7355 
    2.4033 	   76.2800 	    3.0000 	   12.0000 	   33.7705 
    2.3423 	   76.3500 	    3.0000 	   12.0000 	   33.8055 
    2.2202 	   76.4200 	    3.0000 	   12.0000 	   33.8405 
    2.3423 	   76.4900 	    3.0000 	   12.0000 	   33.8755 
    2.3728 	   76.5560 	    3.0000 	   12.0000 	   33.9085 
    2.3117 	   76.6240 	    3.0000 	   12.0000 	   33.9425 
    2.4033 	   76.6920 	    3.0000 	   12.0000 	   33.9765 
    2.0981 	   76.7620 	    3.0000 	   12.0000 	   34.0115 
    2.2202 	   76.8300 	    3.0000 	   12.0000 	   34.0455 
    2.3880 	   76.9000 	    3.0000 	   12.0000 	   34.0805 
    2.3423 	   76.9640 	    3.0000 	   12.0000 	   34.1125 
    2.3117 	   77.0300 	    3.0000 	   12.0000 	   34.1455 
    2.2202 	   77.0960 	    3.0000 	   12.0000 	   34.1785 
    2.2507 	   77.1580 	    3.0000 	   12.0000 	   34.2095 
    2.1592 	   77.2200 	    3.0000 	   12.0000 	   34.2405 
    2.0066 	   77.2800 	    3.0000 	   12.0000 	   34.2705 
    2.2812 	   77.3420 	    3.0000 	   12.0000 	   34.3015 
    2.1286 	   77.4020 	    3.0000 	   12.0000 	   34.3316 
    2.2660 	   77.4640 	    3.0000 	   12.0000 	   34.3626 
    2.2965 	   77.5280 	    3.0000 	   12.0000 	   34.3936 
    2.2507 	   77.5900 	    3.0000 	   12.0000 	   34.4256 
    2.2202 	   77.6540 	    3.0000 	   12.0000 	   34.4576 
    2.0829 	   77.7200 	    3.0000 	   12.0000 	   34.4906 
    2.1592 	   77.7900 	    3.0000 	   12.0000 	   34.5256 
    2.0218 	   77.8620 	    3.0000 	   12.0000 	   34.5616 
    2.3270 	   77.9320 	    3.0000 	   12.0000 	   34.5966 
    2.1286 	   78.0020 	    3.0000 	   12.0000 	   34.6316 
    2.1439 	   78.0720 	    3.0000 	   12.0000 	   34.6666 
    2.1286 	   78.1460 	    3.0000 	   12.0000 	   34.7036 
    2.1744 	   78.2160 	    3.0000 	   12.0000 	   34.7386 
    2.1897 	   78.2820 	    3.0000 	   12.0000 	   34.7716 
    2.0829 	   78.3580 	    3.0000 	   12.0000 	   34.8096 
    2.0829 	   78.4300 	    3.0000 	   12.0000 	   34.8456 
    2.1744 	   78.5000 	    3.0000 	   12.0000 	   34.8806 
    1.8235 	   78.5680 	    3.0000 	   12.0000 	   34.9146 
    2.2049 	   78.6380 	    3.0000 	   12.0000 	   34.9496 
    2.0981 	   78.7080 	    3.0000 	   12.0000 	   34.9846 
    2.0371 	   78.7720 	    3.0000 	   12.0000 	   35.0166 
    2.1744 	   78.8340 	    3.0000 	   12.0000 	   35.0476 
    2.1286 	   78.9000 	    3.0000 	   12.0000 	   35.0806 
    2.2354 	   78.9680 	    3.0000 	   12.0000 	   35.1146 
    2.2354 	   79.0300 	    3.0000 	   12.0000 	   35.1456 
    2.2049 	   79.0940 	    3.0000 	   12.0000 	   35.1776 
    2.1134 	   79.1580 	    3.0000 	   12.0000 	   35.2096 
    1.9150 	   79.2180 	    3.0000 	   12.0000 	   35.2396 
    2.2049 	   79.2780 	    3.0000 	   12.0000 	   35.2696 
    2.2049 	   79.3440 	    3.0000 	   12.0000 	   35.3026 
    2.0676 	   79.4120 	    3.0000 	   12.0000 	   35.3366 
    2.1439 	   79.4820 	    3.0000 	   12.0000 	   35.3716 
    1.9608 	   79.5560 	    3.0000 	   12.0000 	   35.4086 
    2.0676 	   79.6280 	    3.0000 	   12.0000 	   35.4446 
    2.0829 	   79.6960 	    3.0000 	   12.0000 	   35.4786 
    2.1592 	   79.7640 	    3.0000 	   12.0000 	   35.5126 
    2.0218 	   79.8360 	    3.0000 	   12.0000 	   35.5486 
    2.0218 	   79.9060 	    3.0000 	   12.0000 	   35.5836 
    2.1439 	   79.9720 	    3.0000 	   12.0000 	   35.6166 
    2.0829 	   80.0340 	    3.0000 	   12.0000 	   35.6476 
    2.0981 	   80.0980 	    3.0000 	   12.0000 	   35.6796 
    2.2202 	   80.1680 	    3.0000 	   12.0000 	   35.7146 
    2.1134 	   80.2320 	    3.0000 	   12.0000 	   35.7466 
    2.0829 	   80.2960 	    3.0000 	   12.0000 	   35.7786 
    2.1286 	   80.3640 	    3.0000 	   12.0000 	   35.8126 
    1.9150 	   80.4260 	    3.0000 	   12.0000 	   35.8436 
    1.9913 	   80.4880 	    3.0000 	   12.0000 	   35.8746 
    2.0829 	   80.5500 	    3.0000 	   12.0000 	   35.9056 
    1.9760 	   80.6120 	    3.0000 	   12.0000 	   35.9366 
    1.9150 	   80.6760 	    3.0000 	   12.0000 	   35.9686 
    2.0066 	   80.7400 	    3.0000 	   12.0000 	   36.0006 
    1.9760 	   80.8080 	    3.0000 	   12.0000 	   36.0346 
    2.0218 	   80.8680 	    3.0000 	   12.0000 	   36.0647 
    2.0676 	   80.9320 	    3.0000 	   12.0000 	   36.0967 
    2.0066 	   80.9960 	    3.0000 	   12.0000 	   36.1287 
    2.0829 	   81.0580 	    3.0000 	   12.0000 	   36.1597 
    2.0523 	   81.1200 	    3.0000 	   12.0000 	   36.1907 
    1.9150 	   81.1840 	    3.0000 	   12.0000 	   36.2227 
    1.9303 	   81.2420 	    3.0000 	   12.0000 	   36.2517 
    2.0218 	   81.3040 	    3.0000 	   12.0000 	   36.2827 
    1.9608 	   81.3720 	    3.0000 	   12.0000 	   36.3167 
    1.6251 	   81.4440 	    3.0000 	   12.0000 	   36.3527 
    1.9760 	   81.5160 	    3.0000 	   12.0000 	   36.3887 
    2.0523 	   81.5860 	    3.0000 	   12.0000 	   36.4237 
    2.0523 	   81.6560 	    3.0000 	   12.0000 	   36.4587 
    2.0218 	   81.7260 	    3.0000 	   12.0000 	   36.4937 
    1.7777 	   81.7960 	    3.0000 	   12.0000 	   36.5287 
    1.8082 	   81.8680 	    3.0000 	   12.0000 	   36.5647 
    2.0676 	   81.9420 	    3.0000 	   12.0000 	   36.6017 
    2.0218 	   82.0100 	    3.0000 	   12.0000 	   36.6357 
    1.7319 	   82.0820 	    3.0000 	   12.0000 	   36.6717 
    1.9455 	   82.1580 	    3.0000 	   12.0000 	   36.7097 
    2.0371 	   82.2260 	    3.0000 	   12.0000 	   36.7437 
    1.8845 	   82.2920 	    3.0000 	   12.0000 	   36.7767 
    1.9303 	   82.3560 	    3.0000 	   12.0000 	   36.8087 
    1.9150 	   82.4160 	    3.0000 	   12.0000 	   36.8387 
    1.7166 	   82.4800 	    3.0000 	   12.0000 	   36.8707 
    1.8540 	   82.5460 	    3.0000 	   12.0000 	   36.9037 
    1.9608 	   82.6100 	    3.0000 	   12.0000 	   36.9357 
    2.0066 	   82.6740 	    3.0000 	   12.0000 	   36.9677 
    1.8387 	   82.7400 	    3.0000 	   12.0000 	   37.0007 
    1.9455 	   82.8060 	    3.0000 	   12.0000 	   37.0327 
    1.9150 	   82.8680 	    3.0000 	   12.0000 	   37.0647 
    2.0523 	   82.9360 	    3.0000 	   12.0000 	   37.0987 
    1.8235 	   83.0040 	    3.0000 	   12.0000 	   37.1327 
    1.7929 	   83.0700 	    3.0000 	   12.0000 	   37.1657 
    1.7624 	   83.1380 	    3.0000 	   12.0000 	   37.1997 
    1.7777 	   83.2060 	    3.0000 	   12.0000 	   37.2337 
    2.0066 	   83.2680 	    3.0000 	   12.0000 	   37.2647 
    2.0066 	   83.3320 	    3.0000 	   12.0000 	   37.2967 
    1.7929 	   83.3920 	    3.0000 	   12.0000 	   37.3267 
    1.8387 	   83.4520 	    3.0000 	   12.0000 	   37.3567 
    1.7624 	   83.5160 	    3.0000 	   12.0000 	   37.3887 
    1.8235 	   83.5900 	    3.0000 	   12.0000 	   37.4247 
    1.7472 	   83.6600 	    3.0000 	   12.0000 	   37.4607 
    1.8387 	   83.7260 	    3.0000 	   12.0000 	   37.4937 
    1.8235 	   83.7900 	    3.0000 	   12.0000 	   37.5257 
    1.8082 	   83.8540 	    3.0000 	   12.0000 	   37.5577 
    1.8082 	   83.9160 	    3.0000 	   12.0000 	   37.5887 
    1.7472 	   83.9800 	    3.0000 	   12.0000 	   37.6207 
    1.8692 	   84.0480 	    3.0000 	   12.0000 	   37.6547 
    1.8082 	   84.1100 	    3.0000 	   12.0000 	   37.6857 
    1.8387 	   84.1800 	    3.0000 	   12.0000 	   37.7207 
    1.7319 	   84.2480 	    3.0000 	   12.0000 	   37.7547 
    1.8845 	   84.3220 	    3.0000 	   12.0000 	   37.7917 
    1.8387 	   84.3920 	    3.0000 	   12.0000 	   37.8268 
    1.8235 	   84.4620 	    3.0000 	   12.0000 	   37.8618 
    1.5793 	   84.5280 	    3.0000 	   12.0000 	   37.8948 
    1.7319 	   84.5960 	    3.0000 	   12.0000 	   37.9288 
    1.9455 	   84.6640 	    3.0000 	   12.0000 	   37.9628 
    1.7166 	   84.7240 	    3.0000 	   12.0000 	   37.9928 
    1.6709 	   84.7880 	    3.0000 	   12.0000 	   38.0248 
    1.6556 	   84.8500 	    3.0000 	   12.0000 	   38.0558 
    1.9150 	   84.9140 	    3.0000 	   12.0000 	   38.0878 
    1.8540 	   84.9780 	    3.0000 	   12.0000 	   38.1198 
    1.7777 	   85.0420 	    3.0000 	   12.0000 	   38.1518 
    1.7319 	   85.1040 	    3.0000 	   12.0000 	   38.1828 
    1.9455 	   85.1740 	    3.0000 	   12.0000 	   38.2178 
    1.7624 	   85.2360 	    3.0000 	   12.0000 	   38.2488 
    1.7929 	   85.2960 	    3.0000 	   12.0000 	   38.2788 
    1.7777 	   85.3640 	    3.0000 	   12.0000 	   38.3128 
    1.7166 	   85.4340 	    3.0000 	   12.0000 	   38.3478 
    1.7624 	   85.5100 	    3.0000 	   12.0000 	   38.3858 
    1.6709 	   85.5820 	    3.0000 	   12.0000 	   38.4218 
    1.6709 	   85.6520 	    3.0000 	   12.0000 	   38.4568 
    1.5793 	   85.7220 	    3.0000 	   12.0000 	   38.4918 
    1.6556 	   85.7940 	    3.0000 	   12.0000 	   38.5278 
    1.6098 	   85.8680 	    3.0000 	   12.0000 	   38.5648 
    1.7319 	   85.9360 	    3.0000 	   12.0000 	   38.5988 
    1.7929 	   86.0100 	    3.0000 	   12.0000 	   38.6358 
    1.5640 	   86.0820 	    3.0000 	   12.0000 	   38.6718 
    1.6403 	   86.1600 	    3.0000 	   12.0000 	   38.7108 
    1.6403 	   86.2300 	    3.0000 	   12.0000 	   38.7458 
    1.8540 	   86.3000 	    3.0000 	   12.0000 	   38.7808 
    1.7014 	   86.3680 	    3.0000 	   12.0000 	   38.8148 
    1.7777 	   86.4420 	    3.0000 	   12.0000 	   38.8518 
    1.6251 	   86.5140 	    3.0000 	   12.0000 	   38.8878 
    1.7166 	   86.5880 	    3.0000 	   12.0000 	   38.9248 
    1.6861 	   86.6540 	    3.0000 	   12.0000 	   38.9578 
    1.6098 	   86.7260 	    3.0000 	   12.0000 	   38.9938 
    1.5793 	   86.7980 	    3.0000 	   12.0000 	   39.0298 
    1.5183 	   86.8640 	    3.0000 	   12.0000 	   39.0628 
    1.7929 	   86.9320 	    3.0000 	   12.0000 	   39.0968 
    1.6556 	   86.9980 	    3.0000 	   12.0000 	   39.1298 
    1.7319 	   87.0620 	    3.0000 	   12.0000 	   39.1618 
    1.5793 	   87.1300 	    3.0000 	   12.0000 	   39.1958 
    1.4878 	   87.1980 	    3.0000 	   12.0000 	   39.2298 
    1.6861 	   87.2560 	    3.0000 	   12.0000 	   39.2588 
    1.5335 	   87.3180 	    3.0000 	   12.0000 	   39.2898 
    1.7014 	   87.3820 	    3.0000 	   12.0000 	   39.3218 
    1.6251 	   87.4520 	    3.0000 	   12.0000 	   39.3568 
    1.5640 	   87.5260 	    3.0000 	   12.0000 	   39.3938 
    1.6709 	   87.5960 	    3.0000 	   12.0000 	   39.4288 
    1.5946 	   87.6660 	    3.0000 	   12.0000 	   39.4638 
    1.6861 	   87.7400 	    3.0000 	   12.0000 	   39.5008 
    1.4878 	   87.8080 	    3.0000 	   12.0000 	   39.5348 
    1.7929 	   87.8780 	    3.0000 	   12.0000 	   39.5699 
    1.6251 	   87.9520 	    3.0000 	   12.0000 	   39.6069 
    1.6098 	   88.0220 	    3.0000 	   12.0000 	   39.6419 
    1.5640 	   88.0960 	    3.0000 	   12.0000 	   39.6789 
    1.4878 	   88.1760 	    3.0000 	   12.0000 	   39.7189 
    1.6251 	   88.2480 	    3.0000 	   12.0000 	   39.7549 
    1.2894 	   88.3220 	    3.0000 	   12.0000 	   39.7919 
    1.6403 	   88.3900 	    3.0000 	   12.0000 	   39.8259 
    1.6251 	   88.4620 	    3.0000 	   12.0000 	   39.8619 
    1.5793 	   88.5300 	    3.0000 	   12.0000 	   39.8959 
    1.5640 	   88.6000 	    3.0000 	   12.0000 	   39.9309 
    1.6251 	   88.6700 	    3.0000 	   12.0000 	   39.9659 
    1.5488 	   88.7420 	    3.0000 	   12.0000 	   40.0019 
    1.8387 	   88.8140 	    3.0000 	   12.0000 	   40.0379 
    1.2589 	   88.8840 	    3.0000 	   12.0000 	   40.0729 
    1.4115 	   88.9500 	    3.0000 	   12.0000 	   40.1059 
    1.6098 	   89.0180 	    3.0000 	   12.0000 	   40.1399 
    1.3809 	   89.0820 	    3.0000 	   12.0000 	   40.1709 
    1.5335 	   89.1500 	    3.0000 	   12.0000 	   40.2059 
    1.6251 	   89.2160 	    3.0000 	   12.0000 	   40.2389 
    1.2741 	   89.2760 	    3.0000 	   12.0000 	   40.2689 
    1.6251 	   89.3440 	    3.0000 	   12.0000 	   40.3029 
    1.6403 	   89.4100 	    3.0000 	   12.0000 	   40.3359 
    1.6098 	   89.4760 	    3.0000 	   12.0000 	   40.3689 
    1.5488 	   89.5400 	    3.0000 	   12.0000 	   40.4009 
    1.3809 	   89.6040 	    3.0000 	   12.0000 	   40.4329 
    1.6556 	   89.6700 	    3.0000 	   12.0000 	   40.4659 
    1.5793 	   89.7400 	    3.0000 	   12.0000 	   40.5009 
    1.4725 	   89.8100 	    3.0000 	   12.0000 	   40.5359 
    1.3809 	   89.8760 	    3.0000 	   12.0000 	   40.5689 
    1.5335 	   89.9500 	    3.0000 	   12.0000 	   40.6059 
    1.3657 	   90.0220 	    3.0000 	   12.0000 	   40.6419 
    1.5030 	   90.0960 	    3.0000 	   12.0000 	   40.6789 
    1.4878 	   90.1740 	    3.0000 	   12.0000 	   40.7179 
    1.4572 	   90.2480 	    3.0000 	   12.0000 	   40.7549 
    1.5640 	   90.3240 	    3.0000 	   12.0000 	   40.7929 
    1.3809 	   90.3960 	    3.0000 	   12.0000 	   40.8289 
    1.5488 	   90.4640 	    3.0000 	   12.0000 	   40.8629 
    1.3199 	   90.5400 	    3.0000 	   12.0000 	   40.9009 
    1.5183 	   90.6080 	    3.0000 	   12.0000 	   40.9349 
    1.5640 	   90.6800 	    3.0000 	   12.0000 	   40.9709 
    1.4572 	   90.7440 	    3.0000 	   12.0000 	   41.0029 
    1.4725 	   90.8060 	    3.0000 	   12.0000 	   41.0339 
    1.3809 	   90.8700 	    3.0000 	   12.0000 	   41.0659 
    1.3657 	   90.9340 	    3.0000 	   12.0000 	   41.0979 
    1.5946 	   90.9980 	    3.0000 	   12.0000 	   41.1299 
    1.6403 	   91.0600 	    3.0000 	   12.0000 	   41.1609 
    1.3657 	   91.1260 	    3.0000 	   12.0000 	   41.1939 
    1.4572 	   91.1880 	    3.0000 	   12.0000 	   41.2249 
    1.4725 	   91.2500 	    3.0000 	   12.0000 	   41.2559 
    1.5335 	   91.3100 	    3.0000 	   12.0000 	   41.2859 
    1.5488 	   91.3760 	    3.0000 	   12.0000 	   41.3190 
    1.5183 	   91.4420 	    3.0000 	   12.0000 	   41.3520 
    1.5183 	   91.5060 	    3.0000 	   12.0000 	   41.3840 
    1.3809 	   91.5700 	    3.0000 	   12.0000 	   41.4160 
    1.4420 	   91.6420 	    3.0000 	   12.0000 	   41.4520 
    1.3809 	   91.7140 	    3.0000 	   12.0000 	   41.4880 
    1.4878 	   91.7880 	    3.0000 	   12.0000 	   41.5250 
    1.4115 	   91.8600 	    3.0000 	   12.0000 	   41.5610 
    1.3504 	   91.9300 	    3.0000 	   12.0000 	   41.5950 
    1.5183 	   92.0000 	    3.0000 	   12.0000 	   41.6310 
    1.5183 	   92.0720 	    3.0000 	   12.0000 	   41.6670 
    1.5030 	   92.1480 	    3.0000 	   12.0000 	   41.7050 
    1.4267 	   92.2220 	    3.0000 	   12.0000 	   41.7420 
    1.5335 	   92.2940 	    3.0000 	   12.0000 	   41.7780 
    1.4420 	   92.3620 	    3.0000 	   12.0000 	   41.8120 
    1.4115 	   92.4260 	    3.0000 	   12.0000 	   41.8440 
    1.5488 	   92.4920 	    3.0000 	   12.0000 	   41.8770 
    1.3809 	   92.5600 	    3.0000 	   12.0000 	   41.9110 
    1.4267 	   92.6320 	    3.0000 	   12.0000 	   41.9470 
    1.2894 	   92.7020 	    3.0000 	   12.0000 	   41.9820 
    1.5183 	   92.7720 	    3.0000 	   12.0000 	   42.0170 
    1.4420 	   92.8460 	    3.0000 	   12.0000 	   42.0540 
    1.3962 	   92.9140 	    3.0000 	   12.0000 	   42.0880 
    1.3504 	   92.9840 	    3.0000 	   12.0000 	   42.1230 
    1.4420 	   93.0500 	    3.0000 	   12.0000 	   42.1560 
    1.4725 	   93.1140 	    3.0000 	   12.0000 	   42.1880 
    1.2436 	   93.1840 	    3.0000 	   12.0000 	   42.2230 
    1.4878 	   93.2480 	    3.0000 	   12.0000 	   42.2550 
    1.3046 	   93.3140 	    3.0000 	   12.0000 	   42.2880 
    1.3657 	   93.3820 	    3.0000 	   12.0000 	   42.3220 
    1.3962 	   93.4560 	    3.0000 	   12.0000 	   42.3580 
    1.4725 	   93.5280 	    3.0000 	   12.0000 	   42.3940 
    1.2741 	   93.5980 	    3.0000 	   12.0000 	   42.4290 
    1.3962 	   93.6700 	    3.0000 	   12.0000 	   42.4650 
    1.3657 	   93.7440 	    3.0000 	   12.0000 	   42.5020 
    1.1521 	   93.8160 	    3.0000 	   12.0000 	   42.5380 
    1.4420 	   93.8880 	    3.0000 	   12.0000 	   42.5740 
    1.2894 	   93.9580 	    3.0000 	   12.0000 	   42.6090 
    1.3352 	   94.0280 	    3.0000 	   12.0000 	   42.6440 
    1.2436 	   94.1040 	    3.0000 	   12.0000 	   42.6820 
    1.2436 	   94.1840 	    3.0000 	   12.0000 	   42.7220 
    1.2436 	   94.2600 	    3.0000 	   12.0000 	   42.7600 
    1.3046 	   94.3320 	    3.0000 	   12.0000 	   42.7960 
    1.2741 	   94.4040 	    3.0000 	   12.0000 	   42.8320 
    1.3352 	   94.4780 	    3.0000 	   12.0000 	   42.8690 
    1.2436 	   94.5480 	    3.0000 	   12.0000 	   42.9040 
    1.4115 	   94.6220 	    3.0000 	   12.0000 	   42.9410 
    1.4725 	   94.6940 	    3.0000 	   12.0000 	   42.9770 
    1.3504 	   94.7640 	    3.0000 	   12.0000 	   43.0120 
    1.5335 	   94.8340 	    3.0000 	   12.0000 	   43.0471 
    1.2589 	   94.9020 	    3.0000 	   12.0000 	   43.0811 
    1.2589 	   94.9680 	    3.0000 	   12.0000 	   43.1141 
    1.2741 	   95.0300 	    3.0000 	   12.0000 	   43.1451 
    1.3046 	   95.0940 	    3.0000 	   12.0000 	   43.1771 
    1.2589 	   95.1600 	    3.0000 	   12.0000 	   43.2101 
    1.2284 	   95.2240 	    3.0000 	   12.0000 	   43.2421 
    1.2894 	   95.2860 	    3.0000 	   12.0000 	   43.2731 
    1.3504 	   95.3480 	    3.0000 	   12.0000 	   43.3041 
    1.2436 	   95.4180 	    3.0000 	   12.0000 	   43.3391 
    1.2284 	   95.4880 	    3.0000 	   12.0000 	   43.3741 
    1.3657 	   95.5620 	    3.0000 	   12.0000 	   43.4111 
    1.2589 	   95.6380 	    3.0000 	   12.0000 	   43.4491 
    1.2741 	   95.7100 	    3.0000 	   12.0000 	   43.4851 
    1.1215 	   95.7840 	    3.0000 	   12.0000 	   43.5221 
    1.1826 	   95.8580 	    3.0000 	   12.0000 	   43.5591 
    1.3504 	   95.9280 	    3.0000 	   12.0000 	   43.5941 
    1.1215 	   96.0060 	    3.0000 	   12.0000 	   43.6331 
    1.3352 	   96.0780 	    3.0000 	   12.0000 	   43.6691 
    1.3657 	   96.1560 	    3.0000 	   12.0000 	   43.7081 
    1.2589 	   96.2300 	    3.0000 	   12.0000 	   43.7451 
    1.1826 	   96.3040 	    3.0000 	   12.0000 	   43.7821 
    1.2284 	   96.3720 	    3.0000 	   12.0000 	   43.8161 
    1.2894 	   96.4480 	    3.0000 	   12.0000 	   43.8541 
    1.0300 	   96.5180 	    3.0000 	   12.0000 	   43.8891 
    1.3352 	   96.5900 	    3.0000 	   12.0000 	   43.9251 
    1.1521 	   96.6620 	    3.0000 	   12.0000 	   43.9611 
    1.3809 	   96.7340 	    3.0000 	   12.0000 	   43.9971 
    1.1215 	   96.8100 	    3.0000 	   12.0000 	   44.0351 
    1.1978 	   96.8820 	    3.0000 	   12.0000 	   44.0711 
    1.3199 	   96.9500 	    3.0000 	   12.0000 	   44.1051 
    1.2741 	   97.0220 	    3.0000 	   12.0000 	   44.1411 
    1.2284 	   97.0940 	    3.0000 	   12.0000 	   44.1771 
    1.2741 	   97.1640 	    3.0000 	   12.0000 	   44.2121 
    1.1368 	   97.2260 	    3.0000 	   12.0000 	   44.2431 
    1.1978 	   97.2900 	    3.0000 	   12.0000 	   44.2751 
    0.8927 	   97.3520 	    3.0000 	   12.0000 	   44.3061 
    1.1978 	   97.4160 	    3.0000 	   12.0000 	   44.3381 
    1.2894 	   97.4880 	    3.0000 	   12.0000 	   44.3741 
    1.2284 	   97.5540 	    3.0000 	   12.0000 	   44.4071 
    1.1063 	   97.6280 	    3.0000 	   12.0000 	   44.4441 
    1.0910 	   97.7020 	    3.0000 	   12.0000 	   44.4811 
    1.1521 	   97.7740 	    3.0000 	   12.0000 	   44.5171 
    1.1215 	   97.8460 	    3.0000 	   12.0000 	   44.5531 
    1.2894 	   97.9240 	    3.0000 	   12.0000 	   44.5921 
    1.1063 	   97.9920 	    3.0000 	   12.0000 	   44.6261 
    1.2131 	   98.0640 	    3.0000 	   12.0000 	   44.6621 
    1.1826 	   98.1320 	    3.0000 	   12.0000 	   44.6961 
    1.1063 	   98.2100 	    3.0000 	   12.0000 	   44.7351 
    1.0605 	   98.2780 	    3.0000 	   12.0000 	   44.7691 
    1.0758 	   98.3420 	    3.0000 	   12.0000 	   44.8012 
    1.2131 	   98.4100 	    3.0000 	   12.0000 	   44.8352 
    1.1826 	   98.4740 	    3.0000 	   12.0000 	   44.8672 
    1.1368 	   98.5400 	    3.0000 	   12.0000 	   44.9002 
    0.9537 	   98.6040 	    3.0000 	   12.0000 	   44.9322 
    1.1063 	   98.6700 	    3.0000 	   12.0000 	   44.9652 
    1.0300 	   98.7340 	    3.0000 	   12.0000 	   44.9972 
    1.1673 	   98.7980 	    3.0000 	   12.0000 	   45.0292 
    1.2131 	   98.8640 	    3.0000 	   12.0000 	   45.0622 
    1.0452 	   98.9600 	    3.0000 	   12.0000 	   45.1102 
    1.0300 	   99.0340 	    3.0000 	   12.0000 	   45.1472 
    1.0147 	   99.0980 	    3.0000 	   12.0000 	   45.1792 
    1.1521 	   99.1620 	    3.0000 	   12.0000 	   45.2112 
    1.1826 	   99.2280 	    3.0000 	   12.0000 	   45.2442 
    1.1673 	   99.2900 	    3.0000 	   12.0000 	   45.2752 
    1.1215 	   99.3520 	    3.0000 	   12.0000 	   45.3062 
    1.1826 	   99.4120 	    3.0000 	   12.0000 	   45.3362 
    1.1368 	   99.4760 	    3.0000 	   12.0000 	   45.3682 
    1.1063 	   99.5500 	    3.0000 	   12.0000 	   45.4052 
    1.1673 	   99.6200 	    3.0000 	   12.0000 	   45.4402 
    1.1368 	   99.6940 	    3.0000 	   12.0000 	   45.4772 
    1.0147 	   99.7680 	    3.0000 	   12.0000 	   45.5142 
    1.0758 	   99.8400 	    3.0000 	   12.0000 	   45.5502 
    1.1063 	   99.9140 	    3.0000 	   12.0000 	   45.5872 
    1.0452 	   99.9920 	    3.0000 	   12.0000 	   45.6262 
    0.9079 	  100.0600 	    3.0000 	   12.0000 	   45.6602 
    1.1673 	  100.1300 	    3.0000 	   12.0000 	   45.6952 
    1.0605 	  100.2140 	    3.0000 	   12.0000 	   45.7372 
    1.1063 	  100.2900 	    3.0000 	   12.0000 	   45.7752 
    1.0300 	  100.3640 	    3.0000 	   12.0000 	   45.8122 
    1.1215 	  100.4340 	    3.0000 	   12.0000 	   45.8472 
    0.8469 	  100.5100 	    3.0000 	   12.0000 	   45.8852 
    1.0452 	  100.5880 	    3.0000 	   12.0000 	   45.9242 
    1.1215 	  100.6580 	    3.0000 	   12.0000 	   45.9592 
    1.0452 	  100.7300 	    3.0000 	   12.0000 	   45.9952 
    0.9842 	  100.8020 	    3.0000 	   12.0000 	   46.0312 
    1.1063 	  100.8720 	    3.0000 	   12.0000 	   46.0662 
    0.9537 	  100.9420 	    3.0000 	   12.0000 	   46.1012 
    1.0605 	  101.0120 	    3.0000 	   12.0000 	   46.1362 
    0.9384 	  101.0840 	    3.0000 	   12.0000 	   46.1722 
    1.0605 	  101.1480 	    3.0000 	   12.0000 	   46.2042 
    1.0758 	  101.2180 	    3.0000 	   12.0000 	   46.2392 
    0.8774 	  101.2800 	    3.0000 	   12.0000 	   46.2702 
    0.9842 	  101.3460 	    3.0000 	   12.0000 	   46.3032 
    0.9995 	  101.4160 	    3.0000 	   12.0000 	   46.3382 
    1.0300 	  101.4900 	    3.0000 	   12.0000 	   46.3752 
    1.0300 	  101.5600 	    3.0000 	   12.0000 	   46.4102 
    1.1063 	  101.6340 	    3.0000 	   12.0000 	   46.4472 
    0.9537 	  101.7060 	    3.0000 	   12.0000 	   46.4832 
    1.1368 	  101.7800 	    3.0000 	   12.0000 	   46.5202 
    0.6485 	  101.8600 	    3.0000 	   12.0000 	   46.5602 
    0.8927 	  101.9320 	    3.0000 	   12.0000 	   46.5963 
    0.8011 	  102.0120 	    3.0000 	   12.0000 	   46.6363 
    1.0758 	  102.0860 	    3.0000 	   12.0000 	   46.6733 
    1.0605 	  102.1640 	    3.0000 	   12.0000 	   46.7123 
    1.1215 	  102.2340 	    3.0000 	   12.0000 	   46.7473 
    0.9079 	  102.3080 	    3.0000 	   12.0000 	   46.7843 
    0.9995 	  102.3760 	    3.0000 	   12.0000 	   46.8183 
    1.0147 	  102.4500 	    3.0000 	   12.0000 	   46.8553 
    1.0605 	  102.5280 	    3.0000 	   12.0000 	   46.8943 
    1.1978 	  102.6020 	    3.0000 	   12.0000 	   46.9313 
    0.9537 	  102.6820 	    3.0000 	   12.0000 	   46.9713 
    0.7401 	  102.7620 	    3.0000 	   12.0000 	   47.0113 
    0.9995 	  102.8320 	    3.0000 	   12.0000 	   47.0463 
    0.9384 	  102.9060 	    3.0000 	   12.0000 	   47.0833 
    1.0147 	  102.9700 	    3.0000 	   12.0000 	   47.1153 
    1.0452 	  103.0380 	    3.0000 	   12.0000 	   47.1493 
    0.9079 	  103.1020 	    3.0000 	   12.0000 	   47.1813 
    0.8469 	  103.1700 	    3.0000 	   12.0000 	   47.2153 
    0.9232 	  103.2340 	    3.0000 	   12.0000 	   47.2473 
    1.0605 	  103.2960 	    3.0000 	   12.0000 	   47.2783 
    0.9689 	  103.3580 	    3.0000 	   12.0000 	   47.3093 
    0.9079 	  103.4220 	    3.0000 	   12.0000 	   47.3413 
    0.8927 	  103.4920 	    3.0000 	   12.0000 	   47.3763 
    0.9842 	  103.5660 	    3.0000 	   12.0000 	   47.4133 
    0.8469 	  103.6360 	    3.0000 	   12.0000 	   47.4483 
    0.9079 	  103.7120 	    3.0000 	   12.0000 	   47.4863 
    0.9995 	  103.7880 	    3.0000 	   12.0000 	   47.5243 
    1.1063 	  103.8560 	    3.0000 	   12.0000 	   47.5583 
    0.9232 	  103.9300 	    3.0000 	   12.0000 	   47.5953 
    0.7706 	  103.9960 	    3.0000 	   12.0000 	   47.6283 
    0.7858 	  104.0620 	    3.0000 	   12.0000 	   47.6613 
    0.8469 	  104.1280 	    3.0000 	   12.0000 	   47.6943 
    1.0758 	  104.1980 	    3.0000 	   12.0000 	   47.7293 
    0.8927 	  104.2640 	    3.0000 	   12.0000 	   47.7623 
    0.8774 	  104.3280 	    3.0000 	   12.0000 	   47.7943 
    0.8316 	  104.3920 	    3.0000 	   12.0000 	   47.8263 
    0.7401 	  104.4560 	    3.0000 	   12.0000 	   47.8583 
    0.9537 	  104.5240 	    3.0000 	   12.0000 	   47.8923 
    0.8011 	  104.5880 	    3.0000 	   12.0000 	   47.9243 
    0.8927 	  104.6540 	    3.0000 	   12.0000 	   47.9573 
    0.9384 	  104.7200 	    3.0000 	   12.0000 	   47.9903 
    0.9079 	  104.7820 	    3.0000 	   12.0000 	   48.0213 
    0.9842 	  104.8560 	    3.0000 	   12.0000 	   48.0583 
    0.9079 	  104.9260 	    3.0000 	   12.0000 	   48.0933 
    0.8927 	  104.9920 	    3.0000 	   12.0000 	   48.1263 
    0.7706 	  105.0600 	    3.0000 	   12.0000 	   48.1603 
    0.4654 	  105.1240 	    3.0000 	   12.0000 	   48.1923 
    0.9232 	  105.2000 	    3.0000 	   12.0000 	   48.2303 
    0.8164 	  105.2800 	    3.0000 	   12.0000 	   48.2703 
    0.8927 	  105.3440 	    3.0000 	   12.0000 	   48.3023 
    0.7858 	  105.4060 	    3.0000 	   12.0000 	   48.3334 
    0.8621 	  105.4740 	    3.0000 	   12.0000 	   48.3674 
    0.8164 	  105.5440 	    3.0000 	   12.0000 	   48.4024 
    0.9232 	  105.6240 	    3.0000 	   12.0000 	   48.4424 
    0.9384 	  105.6960 	    3.0000 	   12.0000 	   48.4784 
    0.8621 	  105.7720 	    3.0000 	   12.0000 	   48.5164 
    0.9079 	  105.8460 	    3.0000 	   12.0000 	   48.5534 
    0.8927 	  105.9200 	    3.0000 	   12.0000 	   48.5904 
    0.7706 	  105.9960 	    3.0000 	   12.0000 	   48.6284 
    0.8011 	  106.0680 	    3.0000 	   12.0000 	   48.6644 
    0.9232 	  106.1360 	    3.0000 	   12.0000 	   48.6984 
    0.9384 	  106.2180 	    3.0000 	   12.0000 	   48.7394 
    0.7248 	  106.2960 	    3.0000 	   12.0000 	   48.7784 
    0.8774 	  106.3680 	    3.0000 	   12.0000 	   48.8144 
    0.8011 	  106.4420 	    3.0000 	   12.0000 	   48.8514 
    0.8927 	  106.5140 	    3.0000 	   12.0000 	   48.8874 
    0.9232 	  106.5940 	    3.0000 	   12.0000 	   48.9274 
    0.9384 	  106.6620 	    3.0000 	   12.0000 	   48.9614 
    0.8621 	  106.7340 	    3.0000 	   12.0000 	   48.9974 
    0.8316 	  106.8080 	    3.0000 	   12.0000 	   49.0344 
    0.7248 	  106.8800 	    3.0000 	   12.0000 	   49.0704 
    0.6638 	  106.9480 	    3.0000 	   12.0000 	   49.1044 
    0.8927 	  107.0180 	    3.0000 	   12.0000 	   49.1394 
    0.8621 	  107.0900 	    3.0000 	   12.0000 	   49.1754 
    0.7095 	  107.1540 	    3.0000 	   12.0000 	   49.2074 
    0.7401 	  107.2220 	    3.0000 	   12.0000 	   49.2414 
    0.6638 	  107.2920 	    3.0000 	   12.0000 	   49.2764 
    0.6027 	  107.3560 	    3.0000 	   12.0000 	   49.3084 
    0.6790 	  107.4260 	    3.0000 	   12.0000 	   49.3434 
    0.6790 	  107.5100 	    3.0000 	   12.0000 	   49.3854 
    0.8927 	  107.5840 	    3.0000 	   12.0000 	   49.4224 
    0.6943 	  107.6700 	    3.0000 	   12.0000 	   49.4654 
    0.6180 	  107.7400 	    3.0000 	   12.0000 	   49.5004 
    0.4807 	  107.8140 	    3.0000 	   12.0000 	   49.5374 
    0.4807 	  107.8880 	    3.0000 	   12.0000 	   49.5744 
    0.6332 	  107.9640 	    3.0000 	   12.0000 	   49.6124 
    0.6638 	  108.0380 	    3.0000 	   12.0000 	   49.6494 
    0.6790 	  108.1140 	    3.0000 	   12.0000 	   49.6874 
    0.8469 	  108.1940 	    3.0000 	   12.0000 	   49.7274 
    0.7858 	  108.2660 	    3.0000 	   12.0000 	   49.7634 
    0.7706 	  108.3420 	    3.0000 	   12.0000 	   49.8014 
    0.8164 	  108.4160 	    3.0000 	   12.0000 	   49.8384 
    0.7248 	  108.4920 	    3.0000 	   12.0000 	   49.8764 
    0.7706 	  108.5660 	    3.0000 	   12.0000 	   49.9134 
    0.7553 	  108.6400 	    3.0000 	   12.0000 	   49.9504 
    0.7706 	  108.7120 	    3.0000 	   12.0000 	   49.9864 
    0.7095 	  108.7880 	    3.0000 	   12.0000 	   50.0244 
    0.6485 	  108.8580 	    3.0000 	   12.0000 	   50.0595 
    0.6943 	  108.9300 	    3.0000 	   12.0000 	   50.0955 
    0.4196 	  108.9980 	    3.0000 	   12.0000 	   50.1295 
    0.8011 	  109.0640 	    3.0000 	   12.0000 	   50.1625 
    0.7095 	  109.1300 	    3.0000 	   12.0000 	   50.1955 
    0.5875 	  109.1960 	    3.0000 	   12.0000 	   50.2285 
    0.6485 	  109.2620 	    3.0000 	   12.0000 	   50.2615 
    0.4196 	  109.3280 	    3.0000 	   12.0000 	   50.2945 
    0.6332 	  109.3920 	    3.0000 	   12.0000 	   50.3265 
    0.8011 	  109.4560 	    3.0000 	   12.0000 	   50.3585 
    0.6332 	  109.5220 	    3.0000 	   12.0000 	   50.3915 
    0.6485 	  109.5960 	    3.0000 	   12.0000 	   50.4285 
    0.6943 	  109.6720 	    3.0000 	   12.0000 	   50.4665 
    0.6790 	  109.7460 	    3.0000 	   12.0000 	   50.5035 
    0.6638 	  109.8240 	    3.0000 	   12.0000 	   50.5425 
    0.6485 	  109.8980 	    3.0000 	   12.0000 	   50.5795 
    0.7706 	  109.9760 	    3.0000 	   12.0000 	   50.6185 
    0.6332 	  110.0440 	    3.0000 	   12.0000 	   50.6525 
    0.6943 	  110.1200 	    3.0000 	   12.0000 	   50.6905 
    0.7248 	  110.2040 	    3.0000 	   12.0000 	   50.7325 
    0.7095 	  110.2780 	    3.0000 	   12.0000 	   50.7695 
    0.5417 	  110.3560 	    3.0000 	   12.0000 	   50.8085 
    0.7248 	  110.4280 	    3.0000 	   12.0000 	   50.8445 
    0.5417 	  110.5040 	    3.0000 	   12.0000 	   50.8825 
    0.5875 	  110.5780 	    3.0000 	   12.0000 	   50.9195 
    0.6027 	  110.6560 	    3.0000 	   12.0000 	   50.9585 
    0.6485 	  110.7300 	    3.0000 	   12.0000 	   50.9955 
    0.6638 	  110.8040 	    3.0000 	   12.0000 	   51.0325 
    0.7706 	  110.8780 	    3.0000 	   12.0000 	   51.0695 
    0.6638 	  110.9480 	    3.0000 	   12.0000 	   51.1045 
    0.5112 	  111.0200 	    3.0000 	   12.0000 	   51.1405 
    0.6485 	  111.0920 	    3.0000 	   12.0000 	   51.1755 
    0.5722 	  111.1600 	    3.0000 	   12.0000 	   51.2105 
    0.5875 	  111.2300 	    3.0000 	   12.0000 	   51.2455 
    0.6332 	  111.2960 	    3.0000 	   12.0000 	   51.2785 
    0.4044 	  111.3640 	    3.0000 	   12.0000 	   51.3125 
    0.6943 	  111.4280 	    3.0000 	   12.0000 	   51.3445 
    0.5570 	  111.4940 	    3.0000 	   12.0000 	   51.3775 
    0.3891 	  111.5640 	    3.0000 	   12.0000 	   51.4125 
    0.5570 	  111.6380 	    3.0000 	   12.0000 	   51.4495 
    0.5264 	  111.7180 	    3.0000 	   12.0000 	   51.4895 
    0.6027 	  111.7940 	    3.0000 	   12.0000 	   51.5275 
    0.5264 	  111.8700 	    3.0000 	   12.0000 	   51.5655 
    0.6485 	  111.9460 	    3.0000 	   12.0000 	   51.6035 
    0.4654 	  112.0220 	    3.0000 	   12.0000 	   51.6415 
    0.2670 	  112.0980 	    3.0000 	   12.0000 	   51.6795 
    0.5875 	  112.1760 	    3.0000 	   12.0000 	   51.7185 
    0.6180 	  112.2580 	    3.0000 	   12.0000 	   51.7595 
    0.4349 	  112.3320 	    3.0000 	   12.0000 	   51.7966 
    0.6180 	  112.4040 	    3.0000 	   12.0000 	   51.8326 
    0.6027 	  112.4820 	    3.0000 	   12.0000 	   51.8716 
    0.4959 	  112.5580 	    3.0000 	   12.0000 	   51.9096 
    0.4349 	  112.6320 	    3.0000 	   12.0000 	   51.9466 
    0.5112 	  112.7180 	    3.0000 	   12.0000 	   51.9896 
    0.4654 	  112.7900 	    3.0000 	   12.0000 	   52.0256 
    0.2213 	  112.8620 	    3.0000 	   12.0000 	   52.0616 
    0.4501 	  112.9360 	    3.0000 	   12.0000 	   52.0986 
    0.4196 	  113.0060 	    3.0000 	   12.0000 	   52.1336 
    0.4044 	  113.0720 	    3.0000 	   12.0000 	   52.1666 
    0.3891 	  113.1400 	    3.0000 	   12.0000 	   52.2006 
    0.5570 	  113.2060 	    3.0000 	   12.0000 	   52.2336 
    0.4807 	  113.2760 	    3.0000 	   12.0000 	   52.2686 
    0.5112 	  113.3440 	    3.0000 	   12.0000 	   52.3026 
    0.4044 	  113.4080 	    3.0000 	   12.0000 	   52.3346 
    0.3738 	  113.4720 	    3.0000 	   12.0000 	   52.3666 
    0.5722 	  113.5400 	    3.0000 	   12.0000 	   52.4006 
    0.6027 	  113.6100 	    3.0000 	   12.0000 	   52.4356 
    0.5112 	  113.6880 	    3.0000 	   12.0000 	   52.4746 
    0.5112 	  113.7660 	    3.0000 	   12.0000 	   52.5136 
    0.4654 	  113.8420 	    3.0000 	   12.0000 	   52.5516 
    0.5264 	  113.9140 	    3.0000 	   12.0000 	   52.5876 
    0.5417 	  113.9880 	    3.0000 	   12.0000 	   52.6246 
    0.5112 	  114.0640 	    3.0000 	   12.0000 	   52.6626 
    0.6790 	  114.1360 	    3.0000 	   12.0000 	   52.6986 
    0.4349 	  114.2100 	    3.0000 	   12.0000 	   52.7356 
    0.4654 	  114.2820 	    3.0000 	   12.0000 	   52.7716 
    0.3891 	  114.3560 	    3.0000 	   12.0000 	   52.8086 
    0.3433 	  114.4300 	    3.0000 	   12.0000 	   52.8456 
    0.5875 	  114.5040 	    3.0000 	   12.0000 	   52.8826 
    0.4959 	  114.5800 	    3.0000 	   12.0000 	   52.9206 
    0.4501 	  114.6540 	    3.0000 	   12.0000 	   52.9576 
    0.5112 	  114.7280 	    3.0000 	   12.0000 	   52.9946 
    0.4349 	  114.8040 	    3.0000 	   12.0000 	   53.0326 
    0.5417 	  114.8780 	    3.0000 	   12.0000 	   53.0696 
    0.5417 	  114.9540 	    3.0000 	   12.0000 	   53.1076 
    0.3738 	  115.0300 	    3.0000 	   12.0000 	   53.1456 
    0.4501 	  115.0980 	    3.0000 	   12.0000 	   53.1796 
    0.3586 	  115.1800 	    3.0000 	   12.0000 	   53.2206 
    0.4196 	  115.2480 	    3.0000 	   12.0000 	   53.2546 
    0.4501 	  115.3120 	    3.0000 	   12.0000 	   53.2866 
    0.3586 	  115.3800 	    3.0000 	   12.0000 	   53.3206 
    0.4196 	  115.4440 	    3.0000 	   12.0000 	   53.3526 
    0.3586 	  115.5100 	    3.0000 	   12.0000 	   53.3856 
    0.3738 	  115.5760 	    3.0000 	   12.0000 	   53.4186 
    0.3433 	  115.6480 	    3.0000 	   12.0000 	   53.4546 
    0.2976 	  115.7200 	    3.0000 	   12.0000 	   53.4906 
    0.4196 	  115.7940 	    3.0000 	   12.0000 	   53.5276 
    0.4654 	  115.8700 	    3.0000 	   12.0000 	   53.5657 
    0.4044 	  115.9420 	    3.0000 	   12.0000 	   53.6017 
    0.3586 	  116.0160 	    3.0000 	   12.0000 	   53.6387 
    0.2365 	  116.0960 	    3.0000 	   12.0000 	   53.6787 
    0.3433 	  116.1700 	    3.0000 	   12.0000 	   53.7157 
    0.4654 	  116.2420 	    3.0000 	   12.0000 	   53.7517 
    0.4349 	  116.3180 	    3.0000 	   12.0000 	   53.7897 
    0.2670 	  116.3880 	    3.0000 	   12.0000 	   53.8247 
    0.3586 	  116.4720 	    3.0000 	   12.0000 	   53.8667 
    0.4196 	  116.5440 	    3.0000 	   12.0000 	   53.9027 
    0.5112 	  116.6200 	    3.0000 	   12.0000 	   53.9407 
    0.4959 	  116.6920 	    3.0000 	   12.0000 	   53.9767 
    0.3128 	  116.7680 	    3.0000 	   12.0000 	   54.0147 
    0.2518 	  116.8460 	    3.0000 	   12.0000 	   54.0537 
    0.3891 	  116.9240 	    3.0000 	   12.0000 	   54.0927 
   -0.0381 	  117.0000 	    3.0000 	   12.0000 	   54.1307 
    0.0992 	  117.0700 	    3.0000 	   12.0000 	   54.1657 
    0.2213 	  117.2640 	    3.0000 	   12.0000 	   54.2627 
    0.3128 	  117.3300 	    3.0000 	   12.0000 	   54.2957 
    0.2823 	  117.3960 	    3.0000 	   12.0000 	   54.3287 
    0.3586 	  117.4600 	    3.0000 	   12.0000 	   54.3607 
    0.1907 	  117.5260 	    3.0000 	   12.0000 	   54.3937 
    0.3128 	  117.5980 	    3.0000 	   12.0000 	   54.4297 
    0.4807 	  117.6800 	    3.0000 	   12.0000 	   54.4707 
    0.2365 	  117.7580 	    3.0000 	   12.0000 	   54.5097 
    0.3433 	  117.8320 	    3.0000 	   12.0000 	   54.5467 
    0.4044 	  117.9020 	    3.0000 	   12.0000 	   54.5817 
    0.2213 	  117.9780 	    3.0000 	   12.0000 	   54.6197 
    0.1907 	  118.0540 	    3.0000 	   12.0000 	   54.6577 
    0.1602 	  118.1240 	    3.0000 	   12.0000 	   54.6927 
    0.3738 	  118.2020 	    3.0000 	   12.0000 	   54.7317 
    0.2518 	  118.2780 	    3.0000 	   12.0000 	   54.7697 
    0.3128 	  118.3540 	    3.0000 	   12.0000 	   54.8077 
    0.3433 	  118.4260 	    3.0000 	   12.0000 	   54.8437 
    0.3586 	  118.5000 	    3.0000 	   12.0000 	   54.8807 
   -0.0839 	  118.5720 	    3.0000 	   12.0000 	   54.9167 
    0.2670 	  118.6460 	    3.0000 	   12.0000 	   54.9537 
    0.4196 	  118.7200 	    3.0000 	   12.0000 	   54.9907 
    0.4044 	  118.7960 	    3.0000 	   12.0000 	   55.0287 
    0.3433 	  118.8700 	    3.0000 	   12.0000 	   55.0657 
    0.4044 	  118.9440 	    3.0000 	   12.0000 	   55.1027 
    0.1907 	  119.0180 	    3.0000 	   12.0000 	   55.1397 
   -0.0229 	  119.0840 	    3.0000 	   12.0000 	   55.1727 
    0.2365 	  119.1540 	    3.0000 	   12.0000 	   55.2077 
    0.3281 	  119.2240 	    3.0000 	   12.0000 	   55.2427 
    0.0381 	  119.2940 	    3.0000 	   12.0000 	   55.2777 
    0.3586 	  119.3600 	    3.0000 	   12.0000 	   55.3108 
    0.3738 	  119.4280 	    3.0000 	   12.0000 	   55.3448 
    0.2518 	  119.4920 	    3.0000 	   12.0000 	   55.3768 
    0.2976 	  119.5620 	    3.0000 	   12.0000 	   55.4118 
    0.2823 	  119.6380 	    3.0000 	   12.0000 	   55.4498 
    0.3586 	  119.7160 	    3.0000 	   12.0000 	   55.4888 
    0.2976 	  119.7920 	    3.0000 	   12.0000 	   55.5268 
    0.4959 	  119.8680 	    3.0000 	   12.0000 	   55.5648 
    0.3281 	  119.9460 	    3.0000 	   12.0000 	   55.6038 
    0.1755 	  120.0200 	    3.0000 	   12.0000 	   55.6408 
    0.2976 	  120.0940 	    3.0000 	   12.0000 	   55.6778 
    0.3128 	  120.1780 	    3.0000 	   12.0000 	   55.7198 
    0.2670 	  120.2540 	    3.0000 	   12.0000 	   55.7578 
    0.2518 	  120.3300 	    3.0000 	   12.0000 	   55.7958 
    0.2365 	  120.4040 	    3.0000 	   12.0000 	   55.8328 
    0.2518 	  120.4780 	    3.0000 	   12.0000 	   55.8698 
    0.1907 	  120.5540 	    3.0000 	   12.0000 	   55.9078 
    0.3586 	  120.6280 	    3.0000 	   12.0000 	   55.9448 
    0.3281 	  120.7020 	    3.0000 	   12.0000 	   55.9818 
    0.2518 	  120.7760 	    3.0000 	   12.0000 	   56.0188 
    0.2365 	  120.8520 	    3.0000 	   12.0000 	   56.0568 
    0.0076 	  120.9280 	    3.0000 	   12.0000 	   56.0948 
    0.3891 	  121.0020 	    3.0000 	   12.0000 	   56.1318 
    0.5112 	  121.0720 	    3.0000 	   12.0000 	   56.1668 
    0.3586 	  121.1420 	    3.0000 	   12.0000 	   56.2018 
    0.4044 	  121.2120 	    3.0000 	   12.0000 	   56.2368 
    0.3281 	  121.2840 	    3.0000 	   12.0000 	   56.2728 
    0.2976 	  121.3500 	    3.0000 	   12.0000 	   56.3058 
    0.3738 	  121.4160 	    3.0000 	   12.0000 	   56.3388 
    0.3281 	  121.4800 	    3.0000 	   12.0000 	   56.3708 
    0.1907 	  121.5460 	    3.0000 	   12.0000 	   56.4038 
    0.5112 	  121.6200 	    3.0000 	   12.0000 	   56.4408 
    0.3891 	  121.6940 	    3.0000 	   12.0000 	   56.4778 
