Thayer School of Engineering        Instron 4442 Mechanical Testing System
7/5/2018 11:08:41 PM

  Force (N)	Extension (mm)	Not Used	Not Used	Not Used	     Hour	    Minute	    Second
    0.6638 	    0.5130 	   23.0000 	    8.0000 	   52.8025 
    0.7553 	    0.5280 	   23.0000 	    8.0000 	   52.8325 
    0.7248 	    0.5615 	   23.0000 	    8.0000 	   52.8995 
    0.6180 	    0.5905 	   23.0000 	    8.0000 	   52.9575 
    0.7858 	    0.6170 	   23.0000 	    8.0000 	   53.0105 
    0.5417 	    0.6455 	   23.0000 	    8.0000 	   53.0675 
    0.4349 	    0.6715 	   23.0000 	    8.0000 	   53.1195 
    0.7553 	    0.6990 	   23.0000 	    8.0000 	   53.1745 
    0.7248 	    0.7230 	   23.0000 	    8.0000 	   53.2225 
    0.5722 	    0.7505 	   23.0000 	    8.0000 	   53.2775 
    0.6638 	    0.7765 	   23.0000 	    8.0000 	   53.3295 
    0.5417 	    0.8015 	   23.0000 	    8.0000 	   53.3796 
    0.6638 	    0.8305 	   23.0000 	    8.0000 	   53.4376 
    0.6790 	    0.8555 	   23.0000 	    8.0000 	   53.4876 
    0.4654 	    0.8830 	   23.0000 	    8.0000 	   53.5426 
    0.6027 	    0.9100 	   23.0000 	    8.0000 	   53.5966 
    0.6180 	    0.9410 	   23.0000 	    8.0000 	   53.6586 
    0.8011 	    0.9680 	   23.0000 	    8.0000 	   53.7126 
    0.6180 	    0.9860 	   23.0000 	    8.0000 	   53.7486 
    0.6943 	    1.0165 	   23.0000 	    8.0000 	   53.8096 
    0.6638 	    1.0440 	   23.0000 	    8.0000 	   53.8646 
    0.6027 	    1.0700 	   23.0000 	    8.0000 	   53.9166 
    0.7401 	    1.0995 	   23.0000 	    8.0000 	   53.9756 
    0.7095 	    1.1265 	   23.0000 	    8.0000 	   54.0296 
    0.6027 	    1.1525 	   23.0000 	    8.0000 	   54.0816 
    0.6943 	    1.1775 	   23.0000 	    8.0000 	   54.1316 
    0.6485 	    1.2040 	   23.0000 	    8.0000 	   54.1846 
    0.5875 	    1.2290 	   23.0000 	    8.0000 	   54.2346 
    0.5875 	    1.2545 	   23.0000 	    8.0000 	   54.2856 
    0.7401 	    1.2805 	   23.0000 	    8.0000 	   54.3376 
    0.6332 	    1.2970 	   23.0000 	    8.0000 	   54.3706 
    0.7401 	    1.3255 	   23.0000 	    8.0000 	   54.4276 
    0.6485 	    1.3495 	   23.0000 	    8.0000 	   54.4756 
    0.5417 	    1.3730 	   23.0000 	    8.0000 	   54.5226 
    0.7858 	    1.3985 	   23.0000 	    8.0000 	   54.5736 
    0.6180 	    1.4225 	   23.0000 	    8.0000 	   54.6216 
    0.6638 	    1.4470 	   23.0000 	    8.0000 	   54.6706 
    0.6790 	    1.4725 	   23.0000 	    8.0000 	   54.7216 
    0.6332 	    1.4990 	   23.0000 	    8.0000 	   54.7746 
    0.6638 	    1.5250 	   23.0000 	    8.0000 	   54.8266 
    0.6943 	    1.5510 	   23.0000 	    8.0000 	   54.8786 
    0.7248 	    1.5805 	   23.0000 	    8.0000 	   54.9376 
    0.7401 	    1.5970 	   23.0000 	    8.0000 	   54.9706 
    0.6027 	    1.6260 	   23.0000 	    8.0000 	   55.0286 
    0.6027 	    1.6420 	   23.0000 	    8.0000 	   55.0606 
    0.5722 	    1.6575 	   23.0000 	    8.0000 	   55.0916 
    0.7553 	    1.6735 	   23.0000 	    8.0000 	   55.1236 
    0.6638 	    1.7030 	   23.0000 	    8.0000 	   55.1827 
    0.6790 	    1.7190 	   23.0000 	    8.0000 	   55.2147 
    0.7248 	    1.7340 	   23.0000 	    8.0000 	   55.2447 
    0.8164 	    1.7500 	   23.0000 	    8.0000 	   55.2767 
    0.6332 	    1.7660 	   23.0000 	    8.0000 	   55.3087 
    0.6638 	    1.7940 	   23.0000 	    8.0000 	   55.3647 
    0.7553 	    1.8115 	   23.0000 	    8.0000 	   55.3997 
    0.6943 	    1.8265 	   23.0000 	    8.0000 	   55.4297 
    0.6790 	    1.8455 	   23.0000 	    8.0000 	   55.4677 
    0.6943 	    1.8605 	   23.0000 	    8.0000 	   55.4977 
    0.6790 	    1.8775 	   23.0000 	    8.0000 	   55.5317 
    0.6180 	    1.8930 	   23.0000 	    8.0000 	   55.5627 
    0.6485 	    1.9090 	   23.0000 	    8.0000 	   55.5947 
    0.8774 	    1.9250 	   23.0000 	    8.0000 	   55.6267 
    0.6790 	    1.9410 	   23.0000 	    8.0000 	   55.6587 
    0.6638 	    1.9580 	   23.0000 	    8.0000 	   55.6927 
    0.7553 	    1.9750 	   23.0000 	    8.0000 	   55.7267 
    0.6332 	    1.9910 	   23.0000 	    8.0000 	   55.7587 
    0.8316 	    2.0075 	   23.0000 	    8.0000 	   55.7917 
    0.7553 	    2.0240 	   23.0000 	    8.0000 	   55.8247 
    0.7095 	    2.0400 	   23.0000 	    8.0000 	   55.8567 
    0.7095 	    2.0570 	   23.0000 	    8.0000 	   55.8907 
    0.7858 	    2.0725 	   23.0000 	    8.0000 	   55.9217 
    0.8011 	    2.0880 	   23.0000 	    8.0000 	   55.9527 
    0.5875 	    2.1035 	   23.0000 	    8.0000 	   55.9837 
    0.6027 	    2.1190 	   23.0000 	    8.0000 	   56.0147 
    0.6485 	    2.1355 	   23.0000 	    8.0000 	   56.0477 
    0.7248 	    2.1495 	   23.0000 	    8.0000 	   56.0757 
    0.6790 	    2.1665 	   23.0000 	    8.0000 	   56.1097 
    0.6332 	    2.1825 	   23.0000 	    8.0000 	   56.1417 
    0.4196 	    2.1980 	   23.0000 	    8.0000 	   56.1727 
    0.8469 	    2.2145 	   23.0000 	    8.0000 	   56.2057 
    0.6485 	    2.2305 	   23.0000 	    8.0000 	   56.2377 
    0.7553 	    2.2470 	   23.0000 	    8.0000 	   56.2707 
    0.7401 	    2.2635 	   23.0000 	    8.0000 	   56.3037 
    0.7401 	    2.2805 	   23.0000 	    8.0000 	   56.3377 
    0.6180 	    2.2970 	   23.0000 	    8.0000 	   56.3707 
    0.6485 	    2.3135 	   23.0000 	    8.0000 	   56.4037 
    0.5875 	    2.3290 	   23.0000 	    8.0000 	   56.4347 
    0.6943 	    2.3450 	   23.0000 	    8.0000 	   56.4667 
    0.6485 	    2.3615 	   23.0000 	    8.0000 	   56.4997 
    0.6638 	    2.3780 	   23.0000 	    8.0000 	   56.5327 
    0.7401 	    2.3950 	   23.0000 	    8.0000 	   56.5667 
    0.8011 	    2.4090 	   23.0000 	    8.0000 	   56.5947 
    0.6027 	    2.4245 	   23.0000 	    8.0000 	   56.6257 
    0.7858 	    2.4415 	   23.0000 	    8.0000 	   56.6597 
    0.6332 	    2.4580 	   23.0000 	    8.0000 	   56.6927 
    0.6485 	    2.4745 	   23.0000 	    8.0000 	   56.7257 
    0.7095 	    2.4920 	   23.0000 	    8.0000 	   56.7607 
    0.6180 	    2.5080 	   23.0000 	    8.0000 	   56.7927 
    0.6943 	    2.5250 	   23.0000 	    8.0000 	   56.8267 
    0.4349 	    2.5420 	   23.0000 	    8.0000 	   56.8607 
    0.6790 	    2.5585 	   23.0000 	    8.0000 	   56.8938 
    0.6790 	    2.5740 	   23.0000 	    8.0000 	   56.9248 
    0.6332 	    2.5920 	   23.0000 	    8.0000 	   56.9608 
    0.6332 	    2.6085 	   23.0000 	    8.0000 	   56.9938 
    0.7095 	    2.6255 	   23.0000 	    8.0000 	   57.0278 
    0.6180 	    2.6430 	   23.0000 	    8.0000 	   57.0628 
    0.6638 	    2.6600 	   23.0000 	    8.0000 	   57.0968 
    0.6180 	    2.6755 	   23.0000 	    8.0000 	   57.1278 
    0.6638 	    2.6915 	   23.0000 	    8.0000 	   57.1598 
    0.6943 	    2.7075 	   23.0000 	    8.0000 	   57.1918 
    0.6485 	    2.7225 	   23.0000 	    8.0000 	   57.2218 
    0.6180 	    2.7385 	   23.0000 	    8.0000 	   57.2538 
    0.7401 	    2.7535 	   23.0000 	    8.0000 	   57.2838 
    0.6332 	    2.7680 	   23.0000 	    8.0000 	   57.3128 
    0.6638 	    2.7845 	   23.0000 	    8.0000 	   57.3458 
    0.7401 	    2.7995 	   23.0000 	    8.0000 	   57.3758 
    0.8469 	    2.8140 	   23.0000 	    8.0000 	   57.4048 
    0.5722 	    2.8295 	   23.0000 	    8.0000 	   57.4358 
    0.5722 	    2.8470 	   23.0000 	    8.0000 	   57.4708 
    0.6943 	    2.8615 	   23.0000 	    8.0000 	   57.4998 
    0.6638 	    2.8775 	   23.0000 	    8.0000 	   57.5318 
    0.6790 	    2.8940 	   23.0000 	    8.0000 	   57.5648 
    0.6332 	    2.9090 	   23.0000 	    8.0000 	   57.5948 
    0.6332 	    2.9250 	   23.0000 	    8.0000 	   57.6268 
    0.6332 	    2.9420 	   23.0000 	    8.0000 	   57.6608 
    0.7401 	    2.9575 	   23.0000 	    8.0000 	   57.6918 
    0.6790 	    2.9720 	   23.0000 	    8.0000 	   57.7208 
    0.6790 	    2.9885 	   23.0000 	    8.0000 	   57.7538 
    0.7248 	    3.0035 	   23.0000 	    8.0000 	   57.7838 
    0.6332 	    3.0180 	   23.0000 	    8.0000 	   57.8128 
    0.7095 	    3.0340 	   23.0000 	    8.0000 	   57.8448 
    0.7858 	    3.0490 	   23.0000 	    8.0000 	   57.8748 
    0.6180 	    3.0645 	   23.0000 	    8.0000 	   57.9058 
    0.7095 	    3.0795 	   23.0000 	    8.0000 	   57.9358 
    0.6943 	    3.0960 	   23.0000 	    8.0000 	   57.9688 
    0.4196 	    3.1115 	   23.0000 	    8.0000 	   57.9998 
    0.6943 	    3.1270 	   23.0000 	    8.0000 	   58.0308 
    0.7858 	    3.1435 	   23.0000 	    8.0000 	   58.0638 
    0.6485 	    3.1595 	   23.0000 	    8.0000 	   58.0958 
    0.7401 	    3.1745 	   23.0000 	    8.0000 	   58.1258 
    0.8164 	    3.1910 	   23.0000 	    8.0000 	   58.1588 
    0.6027 	    3.2065 	   23.0000 	    8.0000 	   58.1898 
    0.7095 	    3.2215 	   23.0000 	    8.0000 	   58.2198 
    0.7706 	    3.2385 	   23.0000 	    8.0000 	   58.2538 
    0.7706 	    3.2530 	   23.0000 	    8.0000 	   58.2828 
    0.6943 	    3.2685 	   23.0000 	    8.0000 	   58.3138 
    0.6790 	    3.2850 	   23.0000 	    8.0000 	   58.3468 
    0.5570 	    3.3005 	   23.0000 	    8.0000 	   58.3778 
    0.6332 	    3.3160 	   23.0000 	    8.0000 	   58.4088 
    0.7401 	    3.3325 	   23.0000 	    8.0000 	   58.4418 
    0.7553 	    3.3475 	   23.0000 	    8.0000 	   58.4718 
    0.6180 	    3.3635 	   23.0000 	    8.0000 	   58.5038 
    0.7706 	    3.3775 	   23.0000 	    8.0000 	   58.5318 
    0.7248 	    3.3940 	   23.0000 	    8.0000 	   58.5648 
    0.6485 	    3.4085 	   23.0000 	    8.0000 	   58.5938 
    0.6332 	    3.4235 	   23.0000 	    8.0000 	   58.6239 
    0.6790 	    3.4405 	   23.0000 	    8.0000 	   58.6579 
    0.6332 	    3.4560 	   23.0000 	    8.0000 	   58.6889 
    0.6790 	    3.4720 	   23.0000 	    8.0000 	   58.7209 
    0.7553 	    3.4880 	   23.0000 	    8.0000 	   58.7529 
    0.8011 	    3.5040 	   23.0000 	    8.0000 	   58.7849 
    0.6485 	    3.5195 	   23.0000 	    8.0000 	   58.8159 
    0.5264 	    3.5360 	   23.0000 	    8.0000 	   58.8489 
    0.8621 	    3.5515 	   23.0000 	    8.0000 	   58.8799 
    0.8164 	    3.5665 	   23.0000 	    8.0000 	   58.9099 
    0.7095 	    3.5830 	   23.0000 	    8.0000 	   58.9429 
    0.6485 	    3.5975 	   23.0000 	    8.0000 	   58.9719 
    0.6638 	    3.6115 	   23.0000 	    8.0000 	   58.9999 
    0.6638 	    3.6265 	   23.0000 	    8.0000 	   59.0299 
    0.6332 	    3.6425 	   23.0000 	    8.0000 	   59.0619 
    0.6638 	    3.6580 	   23.0000 	    8.0000 	   59.0929 
    0.6638 	    3.6730 	   23.0000 	    8.0000 	   59.1229 
    0.7401 	    3.6910 	   23.0000 	    8.0000 	   59.1589 
    0.5875 	    3.7055 	   23.0000 	    8.0000 	   59.1879 
    0.6790 	    3.7205 	   23.0000 	    8.0000 	   59.2179 
    0.6180 	    3.7380 	   23.0000 	    8.0000 	   59.2529 
    0.8011 	    3.7535 	   23.0000 	    8.0000 	   59.2839 
    0.7706 	    3.7690 	   23.0000 	    8.0000 	   59.3149 
    0.6485 	    3.7875 	   23.0000 	    8.0000 	   59.3519 
    0.7401 	    3.8030 	   23.0000 	    8.0000 	   59.3829 
    0.5417 	    3.8190 	   23.0000 	    8.0000 	   59.4149 
    0.6790 	    3.8365 	   23.0000 	    8.0000 	   59.4499 
    0.7248 	    3.8530 	   23.0000 	    8.0000 	   59.4829 
    0.6638 	    3.8680 	   23.0000 	    8.0000 	   59.5129 
    0.7553 	    3.8850 	   23.0000 	    8.0000 	   59.5469 
    0.7095 	    3.9010 	   23.0000 	    8.0000 	   59.5789 
    0.3433 	    3.9170 	   23.0000 	    8.0000 	   59.6109 
    0.5722 	    3.9410 	   23.0000 	    8.0000 	   59.6589 
    0.6027 	    3.9565 	   23.0000 	    8.0000 	   59.6899 
    0.6790 	    3.9720 	   23.0000 	    8.0000 	   59.7209 
    0.7706 	    3.9880 	   23.0000 	    8.0000 	   59.7529 
    0.7706 	    4.0035 	   23.0000 	    8.0000 	   59.7839 
    0.6485 	    4.0185 	   23.0000 	    8.0000 	   59.8139 
    0.7706 	    4.0360 	   23.0000 	    8.0000 	   59.8489 
    0.6790 	    4.0510 	   23.0000 	    8.0000 	   59.8789 
    0.6180 	    4.0660 	   23.0000 	    8.0000 	   59.9089 
    0.6180 	    4.0815 	   23.0000 	    8.0000 	   59.9399 
    0.6790 	    4.0975 	   23.0000 	    8.0000 	   59.9719 
    0.6638 	    4.1130 	   23.0000 	    9.0000 	    0.0029 
    0.6332 	    4.1275 	   23.0000 	    9.0000 	    0.0319 
    0.7248 	    4.1440 	   23.0000 	    9.0000 	    0.0649 
    0.8927 	    4.1595 	   23.0000 	    9.0000 	    0.0959 
    0.6485 	    4.1750 	   23.0000 	    9.0000 	    0.1269 
    0.7401 	    4.1900 	   23.0000 	    9.0000 	    0.1569 
    0.5264 	    4.2045 	   23.0000 	    9.0000 	    0.1859 
    0.7553 	    4.2200 	   23.0000 	    9.0000 	    0.2169 
    0.6943 	    4.2370 	   23.0000 	    9.0000 	    0.2509 
    0.6790 	    4.2535 	   23.0000 	    9.0000 	    0.2839 
    0.6638 	    4.2695 	   23.0000 	    9.0000 	    0.3159 
    0.8011 	    4.2840 	   23.0000 	    9.0000 	    0.3449 
    0.6790 	    4.2995 	   23.0000 	    9.0000 	    0.3760 
    0.5722 	    4.3160 	   23.0000 	    9.0000 	    0.4090 
    0.8316 	    4.3310 	   23.0000 	    9.0000 	    0.4390 
    0.6332 	    4.3475 	   23.0000 	    9.0000 	    0.4720 
    0.6638 	    4.3625 	   23.0000 	    9.0000 	    0.5020 
    0.7706 	    4.3775 	   23.0000 	    9.0000 	    0.5320 
    0.5417 	    4.3930 	   23.0000 	    9.0000 	    0.5630 
    0.7553 	    4.4085 	   23.0000 	    9.0000 	    0.5940 
    0.6943 	    4.4250 	   23.0000 	    9.0000 	    0.6270 
    0.7553 	    4.4425 	   23.0000 	    9.0000 	    0.6620 
    0.6790 	    4.4585 	   23.0000 	    9.0000 	    0.6940 
    0.8164 	    4.4730 	   23.0000 	    9.0000 	    0.7230 
    0.7553 	    4.4890 	   23.0000 	    9.0000 	    0.7550 
    0.7553 	    4.5040 	   23.0000 	    9.0000 	    0.7850 
    0.4349 	    4.5195 	   23.0000 	    9.0000 	    0.8160 
    0.6943 	    4.5370 	   23.0000 	    9.0000 	    0.8510 
    0.7248 	    4.5525 	   23.0000 	    9.0000 	    0.8820 
    0.8316 	    4.5685 	   23.0000 	    9.0000 	    0.9140 
    0.6485 	    4.5835 	   23.0000 	    9.0000 	    0.9440 
    0.6180 	    4.5995 	   23.0000 	    9.0000 	    0.9760 
    0.6180 	    4.6150 	   23.0000 	    9.0000 	    1.0070 
    0.6485 	    4.6305 	   23.0000 	    9.0000 	    1.0380 
    0.7248 	    4.6480 	   23.0000 	    9.0000 	    1.0730 
    0.4654 	    4.6630 	   23.0000 	    9.0000 	    1.1030 
    0.7553 	    4.6800 	   23.0000 	    9.0000 	    1.1370 
    0.8621 	    4.6950 	   23.0000 	    9.0000 	    1.1670 
    0.7401 	    4.7090 	   23.0000 	    9.0000 	    1.1950 
    0.8316 	    4.7245 	   23.0000 	    9.0000 	    1.2260 
    0.7858 	    4.7420 	   23.0000 	    9.0000 	    1.2610 
    0.6943 	    4.7570 	   23.0000 	    9.0000 	    1.2910 
    0.8927 	    4.7720 	   23.0000 	    9.0000 	    1.3210 
    0.6180 	    4.7875 	   23.0000 	    9.0000 	    1.3520 
    0.6332 	    4.8040 	   23.0000 	    9.0000 	    1.3850 
    0.6180 	    4.8200 	   23.0000 	    9.0000 	    1.4170 
    0.8164 	    4.8375 	   23.0000 	    9.0000 	    1.4520 
    0.6790 	    4.8530 	   23.0000 	    9.0000 	    1.4830 
    0.5722 	    4.8695 	   23.0000 	    9.0000 	    1.5160 
    0.6332 	    4.8850 	   23.0000 	    9.0000 	    1.5470 
    0.8469 	    4.9015 	   23.0000 	    9.0000 	    1.5800 
    0.6943 	    4.9175 	   23.0000 	    9.0000 	    1.6120 
    0.6485 	    4.9345 	   23.0000 	    9.0000 	    1.6460 
    0.7095 	    4.9495 	   23.0000 	    9.0000 	    1.6760 
    0.6943 	    4.9655 	   23.0000 	    9.0000 	    1.7080 
    0.7858 	    4.9810 	   23.0000 	    9.0000 	    1.7390 
    0.6943 	    4.9960 	   23.0000 	    9.0000 	    1.7690 
    0.7095 	    5.0125 	   23.0000 	    9.0000 	    1.8020 
    0.5264 	    5.0280 	   23.0000 	    9.0000 	    1.8330 
    0.8164 	    5.0455 	   23.0000 	    9.0000 	    1.8680 
    0.6943 	    5.0625 	   23.0000 	    9.0000 	    1.9020 
    0.7095 	    5.0780 	   23.0000 	    9.0000 	    1.9330 
    0.6790 	    5.0930 	   23.0000 	    9.0000 	    1.9630 
    0.5570 	    5.1080 	   23.0000 	    9.0000 	    1.9930 
    0.8164 	    5.1245 	   23.0000 	    9.0000 	    2.0260 
    0.6790 	    5.1415 	   23.0000 	    9.0000 	    2.0600 
    0.7095 	    5.1570 	   23.0000 	    9.0000 	    2.0910 
    0.7553 	    5.1735 	   23.0000 	    9.0000 	    2.1241 
    0.6943 	    5.1890 	   23.0000 	    9.0000 	    2.1551 
    0.7095 	    5.2050 	   23.0000 	    9.0000 	    2.1871 
    0.6180 	    5.2205 	   23.0000 	    9.0000 	    2.2181 
    0.9079 	    5.2385 	   23.0000 	    9.0000 	    2.2541 
    0.8011 	    5.2550 	   23.0000 	    9.0000 	    2.2871 
    0.6485 	    5.2725 	   23.0000 	    9.0000 	    2.3221 
    0.7553 	    5.2870 	   23.0000 	    9.0000 	    2.3511 
    0.7553 	    5.3035 	   23.0000 	    9.0000 	    2.3841 
    0.6027 	    5.3195 	   23.0000 	    9.0000 	    2.4161 
    0.6638 	    5.3375 	   23.0000 	    9.0000 	    2.4511 
    0.5875 	    5.3535 	   23.0000 	    9.0000 	    2.4831 
    0.6180 	    5.3705 	   23.0000 	    9.0000 	    2.5171 
    0.8316 	    5.3860 	   23.0000 	    9.0000 	    2.5481 
    0.7706 	    5.4015 	   23.0000 	    9.0000 	    2.5791 
    0.7858 	    5.4175 	   23.0000 	    9.0000 	    2.6111 
    0.6638 	    5.4350 	   23.0000 	    9.0000 	    2.6461 
    0.7248 	    5.4510 	   23.0000 	    9.0000 	    2.6781 
    0.6790 	    5.4670 	   23.0000 	    9.0000 	    2.7101 
    0.8011 	    5.4825 	   23.0000 	    9.0000 	    2.7411 
    0.7248 	    5.4985 	   23.0000 	    9.0000 	    2.7731 
    0.6332 	    5.5145 	   23.0000 	    9.0000 	    2.8051 
    0.6943 	    5.5310 	   23.0000 	    9.0000 	    2.8381 
    0.8164 	    5.5480 	   23.0000 	    9.0000 	    2.8721 
    0.6180 	    5.5640 	   23.0000 	    9.0000 	    2.9041 
    0.6638 	    5.5800 	   23.0000 	    9.0000 	    2.9361 
    0.6485 	    5.5975 	   23.0000 	    9.0000 	    2.9711 
    0.7553 	    5.6130 	   23.0000 	    9.0000 	    3.0021 
    0.8011 	    5.6295 	   23.0000 	    9.0000 	    3.0351 
    0.8621 	    5.6465 	   23.0000 	    9.0000 	    3.0691 
    0.8164 	    5.6625 	   23.0000 	    9.0000 	    3.1011 
    0.6790 	    5.6790 	   23.0000 	    9.0000 	    3.1341 
    0.6790 	    5.6955 	   23.0000 	    9.0000 	    3.1671 
    0.7401 	    5.7110 	   23.0000 	    9.0000 	    3.1981 
    0.7706 	    5.7275 	   23.0000 	    9.0000 	    3.2311 
    0.6790 	    5.7445 	   23.0000 	    9.0000 	    3.2651 
    0.8469 	    5.7610 	   23.0000 	    9.0000 	    3.2981 
    0.7095 	    5.7765 	   23.0000 	    9.0000 	    3.3291 
    0.8164 	    5.7910 	   23.0000 	    9.0000 	    3.3581 
    0.7401 	    5.8060 	   23.0000 	    9.0000 	    3.3881 
    0.7401 	    5.8225 	   23.0000 	    9.0000 	    3.4211 
    0.5722 	    5.8390 	   23.0000 	    9.0000 	    3.4541 
    0.8621 	    5.8550 	   23.0000 	    9.0000 	    3.4861 
    0.5875 	    5.8700 	   23.0000 	    9.0000 	    3.5161 
    0.7401 	    5.8850 	   23.0000 	    9.0000 	    3.5461 
    0.7706 	    5.9015 	   23.0000 	    9.0000 	    3.5791 
    0.7401 	    5.9180 	   23.0000 	    9.0000 	    3.6121 
    0.5875 	    5.9410 	   23.0000 	    9.0000 	    3.6581 
    0.6790 	    5.9585 	   23.0000 	    9.0000 	    3.6931 
    0.7858 	    5.9735 	   23.0000 	    9.0000 	    3.7231 
    0.6180 	    5.9885 	   23.0000 	    9.0000 	    3.7531 
    0.6943 	    6.0045 	   23.0000 	    9.0000 	    3.7851 
    0.6027 	    6.0205 	   23.0000 	    9.0000 	    3.8171 
    0.7401 	    6.0385 	   23.0000 	    9.0000 	    3.8531 
    0.6485 	    6.0555 	   23.0000 	    9.0000 	    3.8872 
    0.6027 	    6.0725 	   23.0000 	    9.0000 	    3.9212 
    0.6943 	    6.0885 	   23.0000 	    9.0000 	    3.9532 
    0.7553 	    6.1040 	   23.0000 	    9.0000 	    3.9842 
    0.5112 	    6.1200 	   23.0000 	    9.0000 	    4.0162 
    0.6332 	    6.1375 	   23.0000 	    9.0000 	    4.0512 
    0.7553 	    6.1540 	   23.0000 	    9.0000 	    4.0842 
    0.7706 	    6.1705 	   23.0000 	    9.0000 	    4.1172 
    0.7706 	    6.1855 	   23.0000 	    9.0000 	    4.1472 
    0.8164 	    6.2005 	   23.0000 	    9.0000 	    4.1772 
    0.7858 	    6.2165 	   23.0000 	    9.0000 	    4.2092 
    0.8316 	    6.2330 	   23.0000 	    9.0000 	    4.2422 
    0.7553 	    6.2495 	   23.0000 	    9.0000 	    4.2752 
    0.6332 	    6.2645 	   23.0000 	    9.0000 	    4.3052 
    0.6638 	    6.2800 	   23.0000 	    9.0000 	    4.3362 
    0.6638 	    6.2970 	   23.0000 	    9.0000 	    4.3702 
    0.4349 	    6.3130 	   23.0000 	    9.0000 	    4.4022 
    0.7553 	    6.3280 	   23.0000 	    9.0000 	    4.4322 
    0.6485 	    6.3435 	   23.0000 	    9.0000 	    4.4632 
    0.8316 	    6.3605 	   23.0000 	    9.0000 	    4.4972 
    0.8927 	    6.3765 	   23.0000 	    9.0000 	    4.5292 
    0.8164 	    6.3925 	   23.0000 	    9.0000 	    4.5612 
    0.8011 	    6.4080 	   23.0000 	    9.0000 	    4.5922 
    0.8316 	    6.4240 	   23.0000 	    9.0000 	    4.6242 
    0.8164 	    6.4420 	   23.0000 	    9.0000 	    4.6602 
    0.8469 	    6.4590 	   23.0000 	    9.0000 	    4.6942 
    0.7401 	    6.4750 	   23.0000 	    9.0000 	    4.7262 
    0.7706 	    6.4915 	   23.0000 	    9.0000 	    4.7592 
    0.7401 	    6.5075 	   23.0000 	    9.0000 	    4.7912 
    0.6638 	    6.5235 	   23.0000 	    9.0000 	    4.8232 
    0.6638 	    6.5395 	   23.0000 	    9.0000 	    4.8552 
    0.7248 	    6.5560 	   23.0000 	    9.0000 	    4.8882 
    0.6180 	    6.5720 	   23.0000 	    9.0000 	    4.9202 
    0.7401 	    6.5895 	   23.0000 	    9.0000 	    4.9552 
    0.7401 	    6.6060 	   23.0000 	    9.0000 	    4.9882 
    0.6332 	    6.6215 	   23.0000 	    9.0000 	    5.0192 
    0.6943 	    6.6395 	   23.0000 	    9.0000 	    5.0552 
    0.6332 	    6.6570 	   23.0000 	    9.0000 	    5.0902 
    0.7401 	    6.6735 	   23.0000 	    9.0000 	    5.1232 
    0.5722 	    6.6890 	   23.0000 	    9.0000 	    5.1542 
    0.6485 	    6.7050 	   23.0000 	    9.0000 	    5.1862 
    0.7095 	    6.7210 	   23.0000 	    9.0000 	    5.2182 
    0.6790 	    6.7365 	   23.0000 	    9.0000 	    5.2492 
    0.8011 	    6.7520 	   23.0000 	    9.0000 	    5.2802 
    0.7401 	    6.7695 	   23.0000 	    9.0000 	    5.3152 
    0.6943 	    6.7855 	   23.0000 	    9.0000 	    5.3472 
    0.7858 	    6.8030 	   23.0000 	    9.0000 	    5.3822 
    0.6027 	    6.8185 	   23.0000 	    9.0000 	    5.4132 
    0.5570 	    6.8360 	   23.0000 	    9.0000 	    5.4482 
    0.7706 	    6.8510 	   23.0000 	    9.0000 	    5.4782 
    0.7706 	    6.8675 	   23.0000 	    9.0000 	    5.5112 
    0.5264 	    6.8840 	   23.0000 	    9.0000 	    5.5442 
    0.6332 	    6.9000 	   23.0000 	    9.0000 	    5.5762 
    0.8011 	    6.9160 	   23.0000 	    9.0000 	    5.6083 
    0.6943 	    6.9315 	   23.0000 	    9.0000 	    5.6393 
    0.7095 	    6.9480 	   23.0000 	    9.0000 	    5.6723 
    0.7858 	    6.9635 	   23.0000 	    9.0000 	    5.7033 
    0.7858 	    6.9805 	   23.0000 	    9.0000 	    5.7373 
    0.6943 	    6.9970 	   23.0000 	    9.0000 	    5.7703 
    0.6638 	    7.0135 	   23.0000 	    9.0000 	    5.8033 
    0.8469 	    7.0305 	   23.0000 	    9.0000 	    5.8373 
    0.7248 	    7.0485 	   23.0000 	    9.0000 	    5.8733 
    0.7706 	    7.0665 	   23.0000 	    9.0000 	    5.9093 
    0.7858 	    7.0825 	   23.0000 	    9.0000 	    5.9413 
    0.6943 	    7.0985 	   23.0000 	    9.0000 	    5.9733 
    0.6943 	    7.1145 	   23.0000 	    9.0000 	    6.0053 
    0.7095 	    7.1320 	   23.0000 	    9.0000 	    6.0403 
    0.7401 	    7.1490 	   23.0000 	    9.0000 	    6.0743 
    0.7401 	    7.1650 	   23.0000 	    9.0000 	    6.1063 
    0.6790 	    7.1810 	   23.0000 	    9.0000 	    6.1383 
    0.8316 	    7.1970 	   23.0000 	    9.0000 	    6.1703 
    0.8011 	    7.2145 	   23.0000 	    9.0000 	    6.2053 
    0.7248 	    7.2310 	   23.0000 	    9.0000 	    6.2383 
    0.6943 	    7.2490 	   23.0000 	    9.0000 	    6.2743 
    0.7248 	    7.2655 	   23.0000 	    9.0000 	    6.3073 
    0.7553 	    7.2820 	   23.0000 	    9.0000 	    6.3403 
    0.8621 	    7.2980 	   23.0000 	    9.0000 	    6.3723 
    0.7401 	    7.3140 	   23.0000 	    9.0000 	    6.4043 
    0.6943 	    7.3305 	   23.0000 	    9.0000 	    6.4373 
    0.7858 	    7.3470 	   23.0000 	    9.0000 	    6.4703 
    0.7095 	    7.3635 	   23.0000 	    9.0000 	    6.5033 
    0.7401 	    7.3795 	   23.0000 	    9.0000 	    6.5353 
    0.7401 	    7.3965 	   23.0000 	    9.0000 	    6.5693 
    0.8621 	    7.4130 	   23.0000 	    9.0000 	    6.6023 
    0.6332 	    7.4295 	   23.0000 	    9.0000 	    6.6353 
    0.7401 	    7.4470 	   23.0000 	    9.0000 	    6.6703 
    0.8621 	    7.4640 	   23.0000 	    9.0000 	    6.7043 
    0.8011 	    7.4795 	   23.0000 	    9.0000 	    6.7353 
    0.7553 	    7.4955 	   23.0000 	    9.0000 	    6.7673 
    0.7401 	    7.5120 	   23.0000 	    9.0000 	    6.8003 
    0.6180 	    7.5290 	   23.0000 	    9.0000 	    6.8343 
    0.8164 	    7.5455 	   23.0000 	    9.0000 	    6.8673 
    0.8011 	    7.5620 	   23.0000 	    9.0000 	    6.9003 
    0.7706 	    7.5780 	   23.0000 	    9.0000 	    6.9323 
    0.8011 	    7.5955 	   23.0000 	    9.0000 	    6.9673 
    0.6485 	    7.6115 	   23.0000 	    9.0000 	    6.9993 
    0.8164 	    7.6270 	   23.0000 	    9.0000 	    7.0303 
    0.7095 	    7.6450 	   23.0000 	    9.0000 	    7.0663 
    0.7095 	    7.6615 	   23.0000 	    9.0000 	    7.0993 
    0.7095 	    7.6770 	   23.0000 	    9.0000 	    7.1303 
    0.7553 	    7.6930 	   23.0000 	    9.0000 	    7.1623 
    0.6332 	    7.7085 	   23.0000 	    9.0000 	    7.1933 
    0.6943 	    7.7245 	   23.0000 	    9.0000 	    7.2253 
    0.7401 	    7.7420 	   23.0000 	    9.0000 	    7.2603 
    0.7248 	    7.7585 	   23.0000 	    9.0000 	    7.2933 
    0.6332 	    7.7755 	   23.0000 	    9.0000 	    7.3273 
    0.6027 	    7.7925 	   23.0000 	    9.0000 	    7.3614 
    0.8621 	    7.8090 	   23.0000 	    9.0000 	    7.3944 
    0.7706 	    7.8240 	   23.0000 	    9.0000 	    7.4244 
    0.7095 	    7.8400 	   23.0000 	    9.0000 	    7.4564 
    0.7706 	    7.8545 	   23.0000 	    9.0000 	    7.4854 
    0.6943 	    7.8690 	   23.0000 	    9.0000 	    7.5144 
    0.8621 	    7.8850 	   23.0000 	    9.0000 	    7.5464 
    0.6943 	    7.9020 	   23.0000 	    9.0000 	    7.5804 
    0.7553 	    7.9170 	   23.0000 	    9.0000 	    7.6104 
    0.6790 	    7.9410 	   23.0000 	    9.0000 	    7.6584 
    0.7553 	    7.9555 	   23.0000 	    9.0000 	    7.6874 
    0.7858 	    7.9720 	   23.0000 	    9.0000 	    7.7204 
    0.8164 	    7.9875 	   23.0000 	    9.0000 	    7.7514 
    0.7095 	    8.0040 	   23.0000 	    9.0000 	    7.7844 
    0.8011 	    8.0200 	   23.0000 	    9.0000 	    7.8164 
    0.7553 	    8.0375 	   23.0000 	    9.0000 	    7.8514 
    0.7706 	    8.0535 	   23.0000 	    9.0000 	    7.8834 
    0.7858 	    8.0695 	   23.0000 	    9.0000 	    7.9154 
    0.7248 	    8.0845 	   23.0000 	    9.0000 	    7.9454 
    0.6943 	    8.1020 	   23.0000 	    9.0000 	    7.9804 
    0.6638 	    8.1185 	   23.0000 	    9.0000 	    8.0134 
    0.8164 	    8.1360 	   23.0000 	    9.0000 	    8.0484 
    0.8011 	    8.1515 	   23.0000 	    9.0000 	    8.0794 
    0.7553 	    8.1680 	   23.0000 	    9.0000 	    8.1124 
    0.7553 	    8.1840 	   23.0000 	    9.0000 	    8.1444 
    0.7401 	    8.1995 	   23.0000 	    9.0000 	    8.1754 
    0.7706 	    8.2155 	   23.0000 	    9.0000 	    8.2074 
    0.7401 	    8.2325 	   23.0000 	    9.0000 	    8.2414 
    0.7858 	    8.2500 	   23.0000 	    9.0000 	    8.2764 
    0.7095 	    8.2670 	   23.0000 	    9.0000 	    8.3104 
    0.7858 	    8.2830 	   23.0000 	    9.0000 	    8.3424 
    0.6332 	    8.2995 	   23.0000 	    9.0000 	    8.3754 
    0.7706 	    8.3165 	   23.0000 	    9.0000 	    8.4094 
    0.8164 	    8.3325 	   23.0000 	    9.0000 	    8.4414 
    0.7706 	    8.3490 	   23.0000 	    9.0000 	    8.4744 
    0.7401 	    8.3655 	   23.0000 	    9.0000 	    8.5074 
    0.7401 	    8.3820 	   23.0000 	    9.0000 	    8.5404 
    0.7401 	    8.3985 	   23.0000 	    9.0000 	    8.5734 
    0.6485 	    8.4145 	   23.0000 	    9.0000 	    8.6054 
    0.8621 	    8.4325 	   23.0000 	    9.0000 	    8.6414 
    0.7248 	    8.4505 	   23.0000 	    9.0000 	    8.6764 
    0.8469 	    8.4670 	   23.0000 	    9.0000 	    8.7104 
    0.5112 	    8.4830 	   23.0000 	    9.0000 	    8.7424 
    0.7858 	    8.5000 	   23.0000 	    9.0000 	    8.7764 
    0.8011 	    8.5150 	   23.0000 	    9.0000 	    8.8064 
    0.9079 	    8.5320 	   23.0000 	    9.0000 	    8.8404 
    0.7248 	    8.5485 	   23.0000 	    9.0000 	    8.8734 
    0.8164 	    8.5645 	   23.0000 	    9.0000 	    8.9054 
    0.8011 	    8.5810 	   23.0000 	    9.0000 	    8.9384 
    0.7401 	    8.5980 	   23.0000 	    9.0000 	    8.9724 
    0.7553 	    8.6145 	   23.0000 	    9.0000 	    9.0054 
    0.8164 	    8.6315 	   23.0000 	    9.0000 	    9.0394 
    0.7095 	    8.6505 	   23.0000 	    9.0000 	    9.0774 
    0.6332 	    8.6660 	   23.0000 	    9.0000 	    9.1084 
    0.7858 	    8.6835 	   23.0000 	    9.0000 	    9.1435 
    0.8774 	    8.6990 	   23.0000 	    9.0000 	    9.1745 
    0.7706 	    8.7160 	   23.0000 	    9.0000 	    9.2085 
    0.8164 	    8.7335 	   23.0000 	    9.0000 	    9.2435 
    0.7706 	    8.7500 	   23.0000 	    9.0000 	    9.2765 
    0.5875 	    8.7665 	   23.0000 	    9.0000 	    9.3095 
    0.7706 	    8.7830 	   23.0000 	    9.0000 	    9.3425 
    0.8316 	    8.7975 	   23.0000 	    9.0000 	    9.3715 
    0.6943 	    8.8115 	   23.0000 	    9.0000 	    9.3995 
    0.7858 	    8.8265 	   23.0000 	    9.0000 	    9.4295 
    0.7553 	    8.8430 	   23.0000 	    9.0000 	    9.4625 
    0.7858 	    8.8570 	   23.0000 	    9.0000 	    9.4905 
    0.7553 	    8.8725 	   23.0000 	    9.0000 	    9.5215 
    0.7553 	    8.8885 	   23.0000 	    9.0000 	    9.5535 
    0.6027 	    8.9055 	   23.0000 	    9.0000 	    9.5875 
    0.7248 	    8.9215 	   23.0000 	    9.0000 	    9.6195 
    0.8774 	    8.9410 	   23.0000 	    9.0000 	    9.6585 
    0.7706 	    8.9580 	   23.0000 	    9.0000 	    9.6925 
    0.9232 	    8.9745 	   23.0000 	    9.0000 	    9.7255 
    0.9232 	    8.9905 	   23.0000 	    9.0000 	    9.7575 
    0.5264 	    9.0075 	   23.0000 	    9.0000 	    9.7915 
    0.6943 	    9.0250 	   23.0000 	    9.0000 	    9.8265 
    0.7248 	    9.0440 	   23.0000 	    9.0000 	    9.8645 
    0.7706 	    9.0600 	   23.0000 	    9.0000 	    9.8965 
    0.7553 	    9.0765 	   23.0000 	    9.0000 	    9.9295 
    0.6790 	    9.0930 	   23.0000 	    9.0000 	    9.9625 
    0.7553 	    9.1090 	   23.0000 	    9.0000 	    9.9945 
    0.6485 	    9.1255 	   23.0000 	    9.0000 	   10.0275 
    0.8621 	    9.1425 	   23.0000 	    9.0000 	   10.0615 
    0.7095 	    9.1605 	   23.0000 	    9.0000 	   10.0975 
    0.7401 	    9.1770 	   23.0000 	    9.0000 	   10.1305 
    0.7553 	    9.1930 	   23.0000 	    9.0000 	   10.1625 
    0.7401 	    9.2090 	   23.0000 	    9.0000 	   10.1945 
    0.8316 	    9.2260 	   23.0000 	    9.0000 	   10.2285 
    0.7858 	    9.2445 	   23.0000 	    9.0000 	   10.2655 
    0.8011 	    9.2620 	   23.0000 	    9.0000 	   10.3005 
    0.7706 	    9.2795 	   23.0000 	    9.0000 	   10.3355 
    0.6332 	    9.2965 	   23.0000 	    9.0000 	   10.3695 
    0.6943 	    9.3140 	   23.0000 	    9.0000 	   10.4045 
    0.8164 	    9.3315 	   23.0000 	    9.0000 	   10.4395 
    0.7858 	    9.3475 	   23.0000 	    9.0000 	   10.4715 
    0.8927 	    9.3640 	   23.0000 	    9.0000 	   10.5045 
    0.7248 	    9.3810 	   23.0000 	    9.0000 	   10.5385 
    0.6638 	    9.3975 	   23.0000 	    9.0000 	   10.5715 
    0.7858 	    9.4150 	   23.0000 	    9.0000 	   10.6065 
    0.8011 	    9.4315 	   23.0000 	    9.0000 	   10.6395 
    0.7401 	    9.4490 	   23.0000 	    9.0000 	   10.6745 
    0.8774 	    9.4660 	   23.0000 	    9.0000 	   10.7085 
    0.7706 	    9.4835 	   23.0000 	    9.0000 	   10.7435 
    0.5875 	    9.5000 	   23.0000 	    9.0000 	   10.7765 
    0.8621 	    9.5165 	   23.0000 	    9.0000 	   10.8095 
    0.9232 	    9.5335 	   23.0000 	    9.0000 	   10.8435 
    0.7858 	    9.5495 	   23.0000 	    9.0000 	   10.8756 
    0.6638 	    9.5665 	   23.0000 	    9.0000 	   10.9096 
    0.8316 	    9.5825 	   23.0000 	    9.0000 	   10.9416 
    0.6943 	    9.6000 	   23.0000 	    9.0000 	   10.9766 
    0.7553 	    9.6165 	   23.0000 	    9.0000 	   11.0096 
    0.8164 	    9.6335 	   23.0000 	    9.0000 	   11.0436 
    0.8469 	    9.6480 	   23.0000 	    9.0000 	   11.0726 
    0.7401 	    9.6630 	   23.0000 	    9.0000 	   11.1026 
    0.5875 	    9.6810 	   23.0000 	    9.0000 	   11.1386 
    0.5112 	    9.6975 	   23.0000 	    9.0000 	   11.1716 
    0.8164 	    9.7140 	   23.0000 	    9.0000 	   11.2046 
    0.7706 	    9.7285 	   23.0000 	    9.0000 	   11.2336 
    0.7401 	    9.7435 	   23.0000 	    9.0000 	   11.2636 
    0.7401 	    9.7585 	   23.0000 	    9.0000 	   11.2936 
    0.8164 	    9.7750 	   23.0000 	    9.0000 	   11.3266 
    0.7706 	    9.7905 	   23.0000 	    9.0000 	   11.3576 
    0.7706 	    9.8060 	   23.0000 	    9.0000 	   11.3886 
    0.7553 	    9.8210 	   23.0000 	    9.0000 	   11.4186 
    0.6943 	    9.8380 	   23.0000 	    9.0000 	   11.4526 
    0.8316 	    9.8530 	   23.0000 	    9.0000 	   11.4826 
    0.8621 	    9.8680 	   23.0000 	    9.0000 	   11.5126 
    0.7706 	    9.8830 	   23.0000 	    9.0000 	   11.5426 
    0.7706 	    9.8980 	   23.0000 	    9.0000 	   11.5726 
    0.8621 	    9.9130 	   23.0000 	    9.0000 	   11.6026 
    0.8469 	    9.9280 	   23.0000 	    9.0000 	   11.6326 
    0.7095 	    9.9425 	   23.0000 	    9.0000 	   11.6616 
    0.5570 	    9.9570 	   23.0000 	    9.0000 	   11.6906 
    0.6790 	    9.9720 	   23.0000 	    9.0000 	   11.7206 
    0.6943 	    9.9885 	   23.0000 	    9.0000 	   11.7536 
    0.7858 	   10.0055 	   23.0000 	    9.0000 	   11.7876 
    0.7248 	   10.0225 	   23.0000 	    9.0000 	   11.8216 
    0.7553 	   10.0395 	   23.0000 	    9.0000 	   11.8556 
    0.8927 	   10.0565 	   23.0000 	    9.0000 	   11.8896 
    0.8164 	   10.0730 	   23.0000 	    9.0000 	   11.9226 
    0.7248 	   10.0890 	   23.0000 	    9.0000 	   11.9546 
    0.7553 	   10.1065 	   23.0000 	    9.0000 	   11.9896 
    0.6790 	   10.1245 	   23.0000 	    9.0000 	   12.0256 
    0.6332 	   10.1430 	   23.0000 	    9.0000 	   12.0626 
    0.8774 	   10.1605 	   23.0000 	    9.0000 	   12.0976 
    0.8621 	   10.1770 	   23.0000 	    9.0000 	   12.1306 
    0.8164 	   10.1940 	   23.0000 	    9.0000 	   12.1646 
    0.9842 	   10.2095 	   23.0000 	    9.0000 	   12.1956 
    0.8316 	   10.2260 	   23.0000 	    9.0000 	   12.2286 
    0.9537 	   10.2425 	   23.0000 	    9.0000 	   12.2616 
    0.5570 	   10.2605 	   23.0000 	    9.0000 	   12.2976 
    0.7553 	   10.2770 	   23.0000 	    9.0000 	   12.3306 
    0.7095 	   10.2940 	   23.0000 	    9.0000 	   12.3646 
    0.7858 	   10.3115 	   23.0000 	    9.0000 	   12.3996 
    0.8011 	   10.3290 	   23.0000 	    9.0000 	   12.4346 
    0.7095 	   10.3455 	   23.0000 	    9.0000 	   12.4676 
    0.8011 	   10.3620 	   23.0000 	    9.0000 	   12.5006 
    0.8011 	   10.3770 	   23.0000 	    9.0000 	   12.5306 
    0.8011 	   10.3915 	   23.0000 	    9.0000 	   12.5596 
    0.8621 	   10.4070 	   23.0000 	    9.0000 	   12.5906 
    0.8164 	   10.4220 	   23.0000 	    9.0000 	   12.6207 
    0.8621 	   10.4380 	   23.0000 	    9.0000 	   12.6527 
    0.7858 	   10.4555 	   23.0000 	    9.0000 	   12.6877 
    0.8469 	   10.4715 	   23.0000 	    9.0000 	   12.7197 
    0.6638 	   10.4890 	   23.0000 	    9.0000 	   12.7547 
    0.6485 	   10.5055 	   23.0000 	    9.0000 	   12.7877 
    0.8621 	   10.5225 	   23.0000 	    9.0000 	   12.8217 
    0.7706 	   10.5405 	   23.0000 	    9.0000 	   12.8577 
    0.7706 	   10.5580 	   23.0000 	    9.0000 	   12.8927 
    0.7248 	   10.5750 	   23.0000 	    9.0000 	   12.9267 
    0.9079 	   10.5920 	   23.0000 	    9.0000 	   12.9607 
    0.7553 	   10.6090 	   23.0000 	    9.0000 	   12.9947 
    0.6943 	   10.6265 	   23.0000 	    9.0000 	   13.0297 
    0.8011 	   10.6450 	   23.0000 	    9.0000 	   13.0667 
    0.7858 	   10.6625 	   23.0000 	    9.0000 	   13.1017 
    0.7553 	   10.6800 	   23.0000 	    9.0000 	   13.1367 
    0.8316 	   10.6970 	   23.0000 	    9.0000 	   13.1707 
    0.8316 	   10.7140 	   23.0000 	    9.0000 	   13.2047 
    0.8469 	   10.7310 	   23.0000 	    9.0000 	   13.2387 
    0.6790 	   10.7480 	   23.0000 	    9.0000 	   13.2727 
    0.8164 	   10.7655 	   23.0000 	    9.0000 	   13.3077 
    0.7401 	   10.7830 	   23.0000 	    9.0000 	   13.3427 
    0.8011 	   10.7995 	   23.0000 	    9.0000 	   13.3757 
    0.5570 	   10.8165 	   23.0000 	    9.0000 	   13.4097 
    0.7858 	   10.8355 	   23.0000 	    9.0000 	   13.4477 
    0.8621 	   10.8545 	   23.0000 	    9.0000 	   13.4857 
    0.7553 	   10.8725 	   23.0000 	    9.0000 	   13.5207 
    0.8316 	   10.8890 	   23.0000 	    9.0000 	   13.5547 
    0.6485 	   10.9060 	   23.0000 	    9.0000 	   13.5887 
    0.7706 	   10.9235 	   23.0000 	    9.0000 	   13.6237 
    0.8011 	   10.9415 	   23.0000 	    9.0000 	   13.6597 
    0.8316 	   10.9585 	   23.0000 	    9.0000 	   13.6937 
    0.8621 	   10.9755 	   23.0000 	    9.0000 	   13.7277 
    0.6180 	   10.9915 	   23.0000 	    9.0000 	   13.7597 
    0.8621 	   11.0090 	   23.0000 	    9.0000 	   13.7947 
    0.8164 	   11.0265 	   23.0000 	    9.0000 	   13.8297 
    0.6332 	   11.0450 	   23.0000 	    9.0000 	   13.8667 
    0.7095 	   11.0615 	   23.0000 	    9.0000 	   13.8997 
    0.8164 	   11.0795 	   23.0000 	    9.0000 	   13.9357 
    0.8164 	   11.0970 	   23.0000 	    9.0000 	   13.9707 
    0.7858 	   11.1140 	   23.0000 	    9.0000 	   14.0047 
    0.9537 	   11.1315 	   23.0000 	    9.0000 	   14.0397 
    0.6790 	   11.1475 	   23.0000 	    9.0000 	   14.0717 
    0.9079 	   11.1640 	   23.0000 	    9.0000 	   14.1047 
    0.8469 	   11.1810 	   23.0000 	    9.0000 	   14.1387 
    0.8316 	   11.1970 	   23.0000 	    9.0000 	   14.1707 
    0.7553 	   11.2155 	   23.0000 	    9.0000 	   14.2077 
    0.7858 	   11.2335 	   23.0000 	    9.0000 	   14.2437 
    0.8774 	   11.2535 	   23.0000 	    9.0000 	   14.2837 
    0.7858 	   11.2705 	   23.0000 	    9.0000 	   14.3177 
    0.7553 	   11.2880 	   23.0000 	    9.0000 	   14.3528 
    0.8316 	   11.3060 	   23.0000 	    9.0000 	   14.3888 
    0.5570 	   11.3225 	   23.0000 	    9.0000 	   14.4218 
    0.7095 	   11.3400 	   23.0000 	    9.0000 	   14.4568 
    0.6790 	   11.3575 	   23.0000 	    9.0000 	   14.4918 
    0.7858 	   11.3750 	   23.0000 	    9.0000 	   14.5268 
    0.8469 	   11.3925 	   23.0000 	    9.0000 	   14.5618 
    0.5570 	   11.4095 	   23.0000 	    9.0000 	   14.5958 
    0.8316 	   11.4260 	   23.0000 	    9.0000 	   14.6288 
    0.7706 	   11.4455 	   23.0000 	    9.0000 	   14.6678 
    0.6485 	   11.4630 	   23.0000 	    9.0000 	   14.7028 
    0.7401 	   11.4815 	   23.0000 	    9.0000 	   14.7398 
    0.4959 	   11.4975 	   23.0000 	    9.0000 	   14.7718 
    0.8621 	   11.5150 	   23.0000 	    9.0000 	   14.8068 
    0.7553 	   11.5320 	   23.0000 	    9.0000 	   14.8408 
    0.7248 	   11.5485 	   23.0000 	    9.0000 	   14.8738 
    0.7858 	   11.5665 	   23.0000 	    9.0000 	   14.9098 
    0.8164 	   11.5840 	   23.0000 	    9.0000 	   14.9448 
    0.8621 	   11.6015 	   23.0000 	    9.0000 	   14.9798 
    0.6180 	   11.6205 	   23.0000 	    9.0000 	   15.0178 
    0.8316 	   11.6395 	   23.0000 	    9.0000 	   15.0558 
    0.7401 	   11.6570 	   23.0000 	    9.0000 	   15.0908 
    0.7095 	   11.6740 	   23.0000 	    9.0000 	   15.1248 
    0.7553 	   11.6915 	   23.0000 	    9.0000 	   15.1598 
    0.7095 	   11.7095 	   23.0000 	    9.0000 	   15.1958 
    0.4807 	   11.7275 	   23.0000 	    9.0000 	   15.2318 
    0.8164 	   11.7440 	   23.0000 	    9.0000 	   15.2648 
    0.7401 	   11.7615 	   23.0000 	    9.0000 	   15.2998 
    0.8316 	   11.7790 	   23.0000 	    9.0000 	   15.3348 
    0.8164 	   11.7965 	   23.0000 	    9.0000 	   15.3698 
    0.8011 	   11.8145 	   23.0000 	    9.0000 	   15.4058 
    0.7706 	   11.8315 	   23.0000 	    9.0000 	   15.4398 
    0.8011 	   11.8510 	   23.0000 	    9.0000 	   15.4788 
    0.7553 	   11.8685 	   23.0000 	    9.0000 	   15.5138 
    0.8011 	   11.8860 	   23.0000 	    9.0000 	   15.5488 
    0.8164 	   11.9030 	   23.0000 	    9.0000 	   15.5828 
    0.8011 	   11.9200 	   23.0000 	    9.0000 	   15.6168 
    0.8164 	   11.9375 	   23.0000 	    9.0000 	   15.6518 
    0.8927 	   11.9540 	   23.0000 	    9.0000 	   15.6848 
    0.8621 	   11.9710 	   23.0000 	    9.0000 	   15.7188 
    0.9232 	   11.9880 	   23.0000 	    9.0000 	   15.7528 
    0.9384 	   12.0060 	   23.0000 	    9.0000 	   15.7888 
    0.8621 	   12.0230 	   23.0000 	    9.0000 	   15.8228 
    0.6027 	   12.0420 	   23.0000 	    9.0000 	   15.8608 
    0.8316 	   12.0595 	   23.0000 	    9.0000 	   15.8958 
    0.7706 	   12.0770 	   23.0000 	    9.0000 	   15.9308 
    0.7095 	   12.0945 	   23.0000 	    9.0000 	   15.9658 
    0.8316 	   12.1115 	   23.0000 	    9.0000 	   15.9998 
    0.7553 	   12.1285 	   23.0000 	    9.0000 	   16.0338 
    0.7248 	   12.1460 	   23.0000 	    9.0000 	   16.0688 
    0.8469 	   12.1640 	   23.0000 	    9.0000 	   16.1049 
    0.8621 	   12.1815 	   23.0000 	    9.0000 	   16.1399 
    0.6027 	   12.1985 	   23.0000 	    9.0000 	   16.1739 
    0.7553 	   12.2150 	   23.0000 	    9.0000 	   16.2069 
    0.8011 	   12.2330 	   23.0000 	    9.0000 	   16.2429 
    0.8164 	   12.2530 	   23.0000 	    9.0000 	   16.2829 
    0.7553 	   12.2700 	   23.0000 	    9.0000 	   16.3169 
    0.8011 	   12.2885 	   23.0000 	    9.0000 	   16.3539 
    0.9079 	   12.3065 	   23.0000 	    9.0000 	   16.3899 
    0.8927 	   12.3240 	   23.0000 	    9.0000 	   16.4249 
    0.8011 	   12.3410 	   23.0000 	    9.0000 	   16.4589 
    0.6790 	   12.3580 	   23.0000 	    9.0000 	   16.4929 
    0.8621 	   12.3760 	   23.0000 	    9.0000 	   16.5289 
    0.7706 	   12.3935 	   23.0000 	    9.0000 	   16.5639 
    0.9079 	   12.4110 	   23.0000 	    9.0000 	   16.5989 
    0.7401 	   12.4275 	   23.0000 	    9.0000 	   16.6319 
    0.6943 	   12.4445 	   23.0000 	    9.0000 	   16.6659 
    0.6943 	   12.4620 	   23.0000 	    9.0000 	   16.7009 
    0.7553 	   12.4805 	   23.0000 	    9.0000 	   16.7379 
    0.6332 	   12.4985 	   23.0000 	    9.0000 	   16.7739 
    0.7401 	   12.5160 	   23.0000 	    9.0000 	   16.8089 
    0.8316 	   12.5340 	   23.0000 	    9.0000 	   16.8449 
    0.8621 	   12.5540 	   23.0000 	    9.0000 	   16.8849 
    0.7706 	   12.5715 	   23.0000 	    9.0000 	   16.9199 
    0.7858 	   12.5900 	   23.0000 	    9.0000 	   16.9569 
    0.7706 	   12.6075 	   23.0000 	    9.0000 	   16.9919 
    0.8621 	   12.6245 	   23.0000 	    9.0000 	   17.0259 
    0.7858 	   12.6425 	   23.0000 	    9.0000 	   17.0619 
    0.8774 	   12.6605 	   23.0000 	    9.0000 	   17.0979 
    0.7858 	   12.6780 	   23.0000 	    9.0000 	   17.1329 
    0.7858 	   12.6955 	   23.0000 	    9.0000 	   17.1679 
    0.6027 	   12.7125 	   23.0000 	    9.0000 	   17.2019 
    0.7858 	   12.7305 	   23.0000 	    9.0000 	   17.2379 
    0.4654 	   12.7470 	   23.0000 	    9.0000 	   17.2709 
    0.7401 	   12.7640 	   23.0000 	    9.0000 	   17.3049 
    0.7706 	   12.7810 	   23.0000 	    9.0000 	   17.3389 
    0.9689 	   12.7995 	   23.0000 	    9.0000 	   17.3759 
    0.7553 	   12.8170 	   23.0000 	    9.0000 	   17.4109 
    0.8621 	   12.8340 	   23.0000 	    9.0000 	   17.4449 
    0.7095 	   12.8515 	   23.0000 	    9.0000 	   17.4799 
    0.8621 	   12.8690 	   23.0000 	    9.0000 	   17.5139 
    0.8164 	   12.8865 	   23.0000 	    9.0000 	   17.5499 
    0.8316 	   12.9040 	   23.0000 	    9.0000 	   17.5849 
    0.7858 	   12.9205 	   23.0000 	    9.0000 	   17.6179 
    0.8316 	   12.9410 	   23.0000 	    9.0000 	   17.6589 
    0.8316 	   12.9610 	   23.0000 	    9.0000 	   17.6989 
    0.7248 	   12.9790 	   23.0000 	    9.0000 	   17.7349 
    0.7706 	   12.9970 	   23.0000 	    9.0000 	   17.7709 
    0.8469 	   13.0155 	   23.0000 	    9.0000 	   17.8079 
    0.8774 	   13.0335 	   23.0000 	    9.0000 	   17.8440 
    0.8469 	   13.0550 	   23.0000 	    9.0000 	   17.8870 
    0.8011 	   13.0725 	   23.0000 	    9.0000 	   17.9220 
    0.8164 	   13.0905 	   23.0000 	    9.0000 	   17.9580 
    0.7553 	   13.1080 	   23.0000 	    9.0000 	   17.9930 
    0.8011 	   13.1270 	   23.0000 	    9.0000 	   18.0310 
    0.7858 	   13.1455 	   23.0000 	    9.0000 	   18.0680 
    0.9079 	   13.1640 	   23.0000 	    9.0000 	   18.1050 
    0.7553 	   13.1815 	   23.0000 	    9.0000 	   18.1400 
    0.7706 	   13.1990 	   23.0000 	    9.0000 	   18.1750 
    0.7248 	   13.2155 	   23.0000 	    9.0000 	   18.2080 
    0.9384 	   13.2330 	   23.0000 	    9.0000 	   18.2430 
    0.8316 	   13.2510 	   23.0000 	    9.0000 	   18.2790 
    0.8164 	   13.2680 	   23.0000 	    9.0000 	   18.3130 
    0.8011 	   13.2880 	   23.0000 	    9.0000 	   18.3530 
    0.8469 	   13.3070 	   23.0000 	    9.0000 	   18.3910 
    0.7401 	   13.3250 	   23.0000 	    9.0000 	   18.4270 
    0.6485 	   13.3420 	   23.0000 	    9.0000 	   18.4610 
    0.8011 	   13.3595 	   23.0000 	    9.0000 	   18.4960 
    0.9232 	   13.3785 	   23.0000 	    9.0000 	   18.5340 
    0.6638 	   13.3960 	   23.0000 	    9.0000 	   18.5690 
    0.7706 	   13.4140 	   23.0000 	    9.0000 	   18.6050 
    0.8774 	   13.4315 	   23.0000 	    9.0000 	   18.6400 
    0.8164 	   13.4485 	   23.0000 	    9.0000 	   18.6740 
    0.7553 	   13.4655 	   23.0000 	    9.0000 	   18.7080 
    0.8927 	   13.4845 	   23.0000 	    9.0000 	   18.7460 
    0.8469 	   13.5025 	   23.0000 	    9.0000 	   18.7820 
    0.8164 	   13.5205 	   23.0000 	    9.0000 	   18.8180 
    0.7095 	   13.5400 	   23.0000 	    9.0000 	   18.8570 
    0.6943 	   13.5575 	   23.0000 	    9.0000 	   18.8920 
    0.6943 	   13.5745 	   23.0000 	    9.0000 	   18.9260 
    0.8164 	   13.5930 	   23.0000 	    9.0000 	   18.9630 
    0.9079 	   13.6120 	   23.0000 	    9.0000 	   19.0010 
    0.9384 	   13.6295 	   23.0000 	    9.0000 	   19.0350 
    0.8316 	   13.6465 	   23.0000 	    9.0000 	   19.0700 
    0.8164 	   13.6630 	   23.0000 	    9.0000 	   19.1030 
    0.7706 	   13.6820 	   23.0000 	    9.0000 	   19.1410 
    0.8621 	   13.6990 	   23.0000 	    9.0000 	   19.1750 
    0.8316 	   13.7165 	   23.0000 	    9.0000 	   19.2100 
    0.8164 	   13.7345 	   23.0000 	    9.0000 	   19.2460 
    0.8011 	   13.7530 	   23.0000 	    9.0000 	   19.2830 
    0.7553 	   13.7720 	   23.0000 	    9.0000 	   19.3210 
    0.6485 	   13.7915 	   23.0000 	    9.0000 	   19.3600 
    0.8469 	   13.8110 	   23.0000 	    9.0000 	   19.3990 
    0.8927 	   13.8290 	   23.0000 	    9.0000 	   19.4350 
    0.9384 	   13.8465 	   23.0000 	    9.0000 	   19.4700 
    0.8011 	   13.8645 	   23.0000 	    9.0000 	   19.5060 
    0.7553 	   13.8830 	   23.0000 	    9.0000 	   19.5430 
    0.8011 	   13.9010 	   23.0000 	    9.0000 	   19.5790 
    0.8927 	   13.9185 	   23.0000 	    9.0000 	   19.6141 
    0.7553 	   13.9405 	   23.0000 	    9.0000 	   19.6581 
    0.8164 	   13.9580 	   23.0000 	    9.0000 	   19.6931 
    0.8011 	   13.9750 	   23.0000 	    9.0000 	   19.7271 
    0.6790 	   13.9930 	   23.0000 	    9.0000 	   19.7631 
    0.7858 	   14.0110 	   23.0000 	    9.0000 	   19.7991 
    0.9232 	   14.0285 	   23.0000 	    9.0000 	   19.8341 
    0.8469 	   14.0475 	   23.0000 	    9.0000 	   19.8721 
    0.7553 	   14.0660 	   23.0000 	    9.0000 	   19.9091 
    0.7553 	   14.0835 	   23.0000 	    9.0000 	   19.9431 
    0.9384 	   14.1005 	   23.0000 	    9.0000 	   19.9771 
    0.7858 	   14.1190 	   23.0000 	    9.0000 	   20.0141 
    0.8316 	   14.1370 	   23.0000 	    9.0000 	   20.0501 
    0.7706 	   14.1570 	   23.0000 	    9.0000 	   20.0901 
    0.5112 	   14.1750 	   23.0000 	    9.0000 	   20.1261 
    0.8621 	   14.1930 	   23.0000 	    9.0000 	   20.1621 
    0.6790 	   14.2105 	   23.0000 	    9.0000 	   20.1971 
    0.7553 	   14.2290 	   23.0000 	    9.0000 	   20.2341 
    0.8774 	   14.2465 	   23.0000 	    9.0000 	   20.2691 
    0.8469 	   14.2645 	   23.0000 	    9.0000 	   20.3051 
    0.8774 	   14.2825 	   23.0000 	    9.0000 	   20.3411 
    0.8621 	   14.3035 	   23.0000 	    9.0000 	   20.3831 
    0.7401 	   14.3210 	   23.0000 	    9.0000 	   20.4181 
    0.7553 	   14.3390 	   23.0000 	    9.0000 	   20.4541 
    0.7553 	   14.3585 	   23.0000 	    9.0000 	   20.4931 
    0.8164 	   14.3755 	   23.0000 	    9.0000 	   20.5271 
    0.6790 	   14.3925 	   23.0000 	    9.0000 	   20.5611 
    0.8164 	   14.4100 	   23.0000 	    9.0000 	   20.5961 
    0.9079 	   14.4285 	   23.0000 	    9.0000 	   20.6331 
    0.7095 	   14.4455 	   23.0000 	    9.0000 	   20.6671 
    0.8469 	   14.4640 	   23.0000 	    9.0000 	   20.7041 
    0.9232 	   14.4815 	   23.0000 	    9.0000 	   20.7391 
    0.8011 	   14.4990 	   23.0000 	    9.0000 	   20.7741 
    0.8164 	   14.5170 	   23.0000 	    9.0000 	   20.8101 
    0.7858 	   14.5345 	   23.0000 	    9.0000 	   20.8451 
    0.8621 	   14.5555 	   23.0000 	    9.0000 	   20.8871 
    0.8927 	   14.5740 	   23.0000 	    9.0000 	   20.9241 
    0.9232 	   14.5920 	   23.0000 	    9.0000 	   20.9601 
    0.8621 	   14.6095 	   23.0000 	    9.0000 	   20.9951 
    0.6943 	   14.6275 	   23.0000 	    9.0000 	   21.0311 
    0.7095 	   14.6460 	   23.0000 	    9.0000 	   21.0681 
    0.7401 	   14.6630 	   23.0000 	    9.0000 	   21.1021 
    0.8469 	   14.6815 	   23.0000 	    9.0000 	   21.1391 
    0.9232 	   14.6995 	   23.0000 	    9.0000 	   21.1751 
    0.7553 	   14.7185 	   23.0000 	    9.0000 	   21.2131 
    0.8621 	   14.7365 	   23.0000 	    9.0000 	   21.2491 
    0.6485 	   14.7560 	   23.0000 	    9.0000 	   21.2881 
    0.8621 	   14.7740 	   23.0000 	    9.0000 	   21.3242 
    0.6638 	   14.7945 	   23.0000 	    9.0000 	   21.3652 
    0.8621 	   14.8120 	   23.0000 	    9.0000 	   21.4002 
    0.8164 	   14.8310 	   23.0000 	    9.0000 	   21.4372 
    0.6180 	   14.8485 	   23.0000 	    9.0000 	   21.4732 
    0.8469 	   14.8665 	   23.0000 	    9.0000 	   21.5092 
    0.8011 	   14.8845 	   23.0000 	    9.0000 	   21.5452 
    0.6332 	   14.9025 	   23.0000 	    9.0000 	   21.5812 
    0.8621 	   14.9205 	   23.0000 	    9.0000 	   21.6172 
    0.7553 	   14.9410 	   23.0000 	    9.0000 	   21.6582 
    0.8164 	   14.9595 	   23.0000 	    9.0000 	   21.6952 
    0.8469 	   14.9790 	   23.0000 	    9.0000 	   21.7342 
    0.7553 	   14.9965 	   23.0000 	    9.0000 	   21.7692 
    0.8774 	   15.0155 	   23.0000 	    9.0000 	   21.8072 
    0.8469 	   15.0345 	   23.0000 	    9.0000 	   21.8452 
    0.8927 	   15.0535 	   23.0000 	    9.0000 	   21.8832 
    0.9842 	   15.0725 	   23.0000 	    9.0000 	   21.9212 
    0.8011 	   15.0900 	   23.0000 	    9.0000 	   21.9562 
    0.8164 	   15.1085 	   23.0000 	    9.0000 	   21.9932 
    0.8927 	   15.1250 	   23.0000 	    9.0000 	   22.0262 
    0.7553 	   15.1430 	   23.0000 	    9.0000 	   22.0622 
    0.8011 	   15.1605 	   23.0000 	    9.0000 	   22.0972 
    0.7553 	   15.1795 	   23.0000 	    9.0000 	   22.1352 
    0.7401 	   15.1965 	   23.0000 	    9.0000 	   22.1692 
    0.8164 	   15.2155 	   23.0000 	    9.0000 	   22.2072 
    0.8774 	   15.2350 	   23.0000 	    9.0000 	   22.2462 
    0.7553 	   15.2540 	   23.0000 	    9.0000 	   22.2842 
    0.9079 	   15.2720 	   23.0000 	    9.0000 	   22.3202 
    0.8774 	   15.2905 	   23.0000 	    9.0000 	   22.3572 
    0.7858 	   15.3085 	   23.0000 	    9.0000 	   22.3932 
    0.7706 	   15.3260 	   23.0000 	    9.0000 	   22.4282 
    0.7706 	   15.3440 	   23.0000 	    9.0000 	   22.4642 
    0.8469 	   15.3620 	   23.0000 	    9.0000 	   22.5002 
    0.9537 	   15.3810 	   23.0000 	    9.0000 	   22.5382 
    0.8011 	   15.3985 	   23.0000 	    9.0000 	   22.5732 
    0.7858 	   15.4170 	   23.0000 	    9.0000 	   22.6102 
    0.8164 	   15.4345 	   23.0000 	    9.0000 	   22.6452 
    0.8011 	   15.4530 	   23.0000 	    9.0000 	   22.6822 
    0.8774 	   15.4705 	   23.0000 	    9.0000 	   22.7172 
    0.8469 	   15.4890 	   23.0000 	    9.0000 	   22.7542 
    0.7858 	   15.5080 	   23.0000 	    9.0000 	   22.7922 
    0.8316 	   15.5255 	   23.0000 	    9.0000 	   22.8272 
    0.8316 	   15.5455 	   23.0000 	    9.0000 	   22.8672 
    0.8469 	   15.5645 	   23.0000 	    9.0000 	   22.9052 
    0.7553 	   15.5825 	   23.0000 	    9.0000 	   22.9412 
    0.8011 	   15.6015 	   23.0000 	    9.0000 	   22.9792 
    0.8011 	   15.6205 	   23.0000 	    9.0000 	   23.0172 
    0.6943 	   15.6390 	   23.0000 	    9.0000 	   23.0542 
    0.8316 	   15.6570 	   23.0000 	    9.0000 	   23.0903 
    0.7401 	   15.6760 	   23.0000 	    9.0000 	   23.1283 
    0.6027 	   15.6940 	   23.0000 	    9.0000 	   23.1643 
    1.0147 	   15.7115 	   23.0000 	    9.0000 	   23.1993 
    0.8927 	   15.7305 	   23.0000 	    9.0000 	   23.2373 
    0.9537 	   15.7495 	   23.0000 	    9.0000 	   23.2753 
    0.8469 	   15.7670 	   23.0000 	    9.0000 	   23.3103 
    0.7401 	   15.7855 	   23.0000 	    9.0000 	   23.3473 
    0.7706 	   15.8025 	   23.0000 	    9.0000 	   23.3813 
    0.8774 	   15.8200 	   23.0000 	    9.0000 	   23.4163 
    0.8164 	   15.8395 	   23.0000 	    9.0000 	   23.4553 
    0.7858 	   15.8575 	   23.0000 	    9.0000 	   23.4913 
    0.8164 	   15.8755 	   23.0000 	    9.0000 	   23.5273 
    0.7706 	   15.8945 	   23.0000 	    9.0000 	   23.5653 
    0.7706 	   15.9130 	   23.0000 	    9.0000 	   23.6023 
    0.7401 	   15.9310 	   23.0000 	    9.0000 	   23.6383 
    0.8011 	   15.9495 	   23.0000 	    9.0000 	   23.6753 
    1.0300 	   15.9675 	   23.0000 	    9.0000 	   23.7113 
    1.0758 	   15.9855 	   23.0000 	    9.0000 	   23.7473 
    0.8469 	   16.0030 	   23.0000 	    9.0000 	   23.7823 
    0.6790 	   16.0205 	   23.0000 	    9.0000 	   23.8173 
    0.8011 	   16.0390 	   23.0000 	    9.0000 	   23.8543 
    0.8164 	   16.0575 	   23.0000 	    9.0000 	   23.8913 
    0.8316 	   16.0750 	   23.0000 	    9.0000 	   23.9263 
    0.6790 	   16.0930 	   23.0000 	    9.0000 	   23.9623 
    0.6027 	   16.1115 	   23.0000 	    9.0000 	   23.9993 
    0.6332 	   16.1290 	   23.0000 	    9.0000 	   24.0343 
    0.8621 	   16.1475 	   23.0000 	    9.0000 	   24.0713 
    0.8469 	   16.1645 	   23.0000 	    9.0000 	   24.1053 
    0.8164 	   16.1835 	   23.0000 	    9.0000 	   24.1433 
    0.9537 	   16.2015 	   23.0000 	    9.0000 	   24.1793 
    0.8469 	   16.2190 	   23.0000 	    9.0000 	   24.2143 
    0.5722 	   16.2365 	   23.0000 	    9.0000 	   24.2493 
    0.7553 	   16.2555 	   23.0000 	    9.0000 	   24.2873 
    0.6027 	   16.2730 	   23.0000 	    9.0000 	   24.3223 
    0.9384 	   16.2910 	   23.0000 	    9.0000 	   24.3583 
    0.8621 	   16.3090 	   23.0000 	    9.0000 	   24.3943 
    0.5722 	   16.3285 	   23.0000 	    9.0000 	   24.4333 
    0.7095 	   16.3470 	   23.0000 	    9.0000 	   24.4703 
    0.8469 	   16.3650 	   23.0000 	    9.0000 	   24.5063 
    0.8774 	   16.3840 	   23.0000 	    9.0000 	   24.5443 
    0.8469 	   16.4015 	   23.0000 	    9.0000 	   24.5793 
    0.9232 	   16.4200 	   23.0000 	    9.0000 	   24.6163 
    0.7248 	   16.4380 	   23.0000 	    9.0000 	   24.6523 
    0.8469 	   16.4560 	   23.0000 	    9.0000 	   24.6883 
    0.8469 	   16.4745 	   23.0000 	    9.0000 	   24.7253 
    0.9537 	   16.4930 	   23.0000 	    9.0000 	   24.7623 
    0.8164 	   16.5105 	   23.0000 	    9.0000 	   24.7973 
    0.7858 	   16.5265 	   23.0000 	    9.0000 	   24.8293 
    0.8316 	   16.5455 	   23.0000 	    9.0000 	   24.8674 
    0.6638 	   16.5635 	   23.0000 	    9.0000 	   24.9034 
    0.5722 	   16.5815 	   23.0000 	    9.0000 	   24.9394 
    0.8316 	   16.6000 	   23.0000 	    9.0000 	   24.9764 
    0.7706 	   16.6190 	   23.0000 	    9.0000 	   25.0144 
    0.9079 	   16.6370 	   23.0000 	    9.0000 	   25.0504 
    0.7553 	   16.6550 	   23.0000 	    9.0000 	   25.0854 
    0.8164 	   16.6730 	   23.0000 	    9.0000 	   25.1224 
    0.9079 	   16.6915 	   23.0000 	    9.0000 	   25.1594 
    0.8164 	   16.7095 	   23.0000 	    9.0000 	   25.1954 
    0.8164 	   16.7270 	   23.0000 	    9.0000 	   25.2304 
    0.9232 	   16.7455 	   23.0000 	    9.0000 	   25.2674 
    0.7858 	   16.7655 	   23.0000 	    9.0000 	   25.3074 
    0.8774 	   16.7830 	   23.0000 	    9.0000 	   25.3424 
    0.7858 	   16.8025 	   23.0000 	    9.0000 	   25.3814 
    0.8164 	   16.8195 	   23.0000 	    9.0000 	   25.4154 
    0.9537 	   16.8390 	   23.0000 	    9.0000 	   25.4544 
    0.8011 	   16.8565 	   23.0000 	    9.0000 	   25.4894 
    0.7553 	   16.8750 	   23.0000 	    9.0000 	   25.5264 
    0.9537 	   16.8945 	   23.0000 	    9.0000 	   25.5654 
    0.7095 	   16.9125 	   23.0000 	    9.0000 	   25.6014 
    0.9232 	   16.9315 	   23.0000 	    9.0000 	   25.6394 
    0.8316 	   16.9495 	   23.0000 	    9.0000 	   25.6754 
    0.9232 	   16.9675 	   23.0000 	    9.0000 	   25.7114 
    0.6180 	   16.9860 	   23.0000 	    9.0000 	   25.7484 
    0.8316 	   17.0045 	   23.0000 	    9.0000 	   25.7854 
    0.7858 	   17.0230 	   23.0000 	    9.0000 	   25.8224 
    0.9232 	   17.0425 	   23.0000 	    9.0000 	   25.8614 
    0.8316 	   17.0615 	   23.0000 	    9.0000 	   25.8994 
    0.8469 	   17.0790 	   23.0000 	    9.0000 	   25.9344 
    0.9689 	   17.0955 	   23.0000 	    9.0000 	   25.9674 
    0.8621 	   17.1115 	   23.0000 	    9.0000 	   25.9994 
    0.8469 	   17.1275 	   23.0000 	    9.0000 	   26.0314 
    0.8774 	   17.1440 	   23.0000 	    9.0000 	   26.0644 
    0.5875 	   17.1610 	   23.0000 	    9.0000 	   26.0984 
    0.8927 	   17.1780 	   23.0000 	    9.0000 	   26.1324 
    0.7858 	   17.1935 	   23.0000 	    9.0000 	   26.1634 
    0.8469 	   17.2095 	   23.0000 	    9.0000 	   26.1954 
    0.8316 	   17.2255 	   23.0000 	    9.0000 	   26.2274 
    0.6180 	   17.2420 	   23.0000 	    9.0000 	   26.2604 
    0.9384 	   17.2580 	   23.0000 	    9.0000 	   26.2924 
    0.7706 	   17.2745 	   23.0000 	    9.0000 	   26.3254 
    0.8621 	   17.2920 	   23.0000 	    9.0000 	   26.3604 
    0.8164 	   17.3095 	   23.0000 	    9.0000 	   26.3954 
    0.8621 	   17.3290 	   23.0000 	    9.0000 	   26.4344 
    0.9232 	   17.3470 	   23.0000 	    9.0000 	   26.4694 
    0.8621 	   17.3640 	   23.0000 	    9.0000 	   26.5044 
    0.5264 	   17.3800 	   23.0000 	    9.0000 	   26.5364 
    0.9079 	   17.3965 	   23.0000 	    9.0000 	   26.5694 
    0.9537 	   17.4125 	   23.0000 	    9.0000 	   26.6015 
    0.8621 	   17.4290 	   23.0000 	    9.0000 	   26.6345 
    0.8164 	   17.4460 	   23.0000 	    9.0000 	   26.6685 
    0.6943 	   17.4630 	   23.0000 	    9.0000 	   26.7025 
    0.8927 	   17.4810 	   23.0000 	    9.0000 	   26.7385 
    1.0605 	   17.5000 	   23.0000 	    9.0000 	   26.7755 
    0.8927 	   17.5170 	   23.0000 	    9.0000 	   26.8105 
    0.7858 	   17.5335 	   23.0000 	    9.0000 	   26.8435 
    0.9079 	   17.5505 	   23.0000 	    9.0000 	   26.8775 
    0.7706 	   17.5665 	   23.0000 	    9.0000 	   26.9095 
    0.9689 	   17.5830 	   23.0000 	    9.0000 	   26.9425 
    0.9384 	   17.5990 	   23.0000 	    9.0000 	   26.9745 
    0.8469 	   17.6160 	   23.0000 	    9.0000 	   27.0085 
    0.9537 	   17.6355 	   23.0000 	    9.0000 	   27.0475 
    0.7858 	   17.6530 	   23.0000 	    9.0000 	   27.0825 
    0.9842 	   17.6720 	   23.0000 	    9.0000 	   27.1205 
    0.9232 	   17.6905 	   23.0000 	    9.0000 	   27.1575 
    0.8011 	   17.7090 	   23.0000 	    9.0000 	   27.1945 
    0.9232 	   17.7275 	   23.0000 	    9.0000 	   27.2315 
    0.8316 	   17.7460 	   23.0000 	    9.0000 	   27.2685 
    0.8621 	   17.7650 	   23.0000 	    9.0000 	   27.3065 
    0.8621 	   17.7835 	   23.0000 	    9.0000 	   27.3435 
    0.9842 	   17.8025 	   23.0000 	    9.0000 	   27.3815 
    0.8164 	   17.8210 	   23.0000 	    9.0000 	   27.4185 
    0.8164 	   17.8405 	   23.0000 	    9.0000 	   27.4575 
    0.8164 	   17.8585 	   23.0000 	    9.0000 	   27.4935 
    0.7401 	   17.8770 	   23.0000 	    9.0000 	   27.5305 
    0.8316 	   17.8955 	   23.0000 	    9.0000 	   27.5675 
    0.9079 	   17.9145 	   23.0000 	    9.0000 	   27.6055 
    0.7858 	   17.9410 	   23.0000 	    9.0000 	   27.6585 
    0.8011 	   17.9585 	   23.0000 	    9.0000 	   27.6935 
    1.0147 	   17.9785 	   23.0000 	    9.0000 	   27.7335 
    0.8164 	   17.9965 	   23.0000 	    9.0000 	   27.7695 
    1.0758 	   18.0150 	   23.0000 	    9.0000 	   27.8065 
    0.8164 	   18.0335 	   23.0000 	    9.0000 	   27.8435 
    0.9842 	   18.0535 	   23.0000 	    9.0000 	   27.8835 
    0.9232 	   18.0715 	   23.0000 	    9.0000 	   27.9195 
    0.9842 	   18.0900 	   23.0000 	    9.0000 	   27.9565 
    0.8469 	   18.1080 	   23.0000 	    9.0000 	   27.9925 
    0.8164 	   18.1275 	   23.0000 	    9.0000 	   28.0315 
    0.8164 	   18.1460 	   23.0000 	    9.0000 	   28.0685 
    0.8316 	   18.1645 	   23.0000 	    9.0000 	   28.1045 
    0.7095 	   18.1820 	   23.0000 	    9.0000 	   28.1405 
    0.8316 	   18.2000 	   23.0000 	    9.0000 	   28.1765 
    0.8621 	   18.2185 	   23.0000 	    9.0000 	   28.2135 
    0.9079 	   18.2375 	   23.0000 	    9.0000 	   28.2515 
    0.8316 	   18.2560 	   23.0000 	    9.0000 	   28.2885 
    0.8927 	   18.2745 	   23.0000 	    9.0000 	   28.3256 
    0.9537 	   18.2935 	   23.0000 	    9.0000 	   28.3636 
    1.0300 	   18.3125 	   23.0000 	    9.0000 	   28.4016 
    0.7858 	   18.3315 	   23.0000 	    9.0000 	   28.4396 
    0.9079 	   18.3490 	   23.0000 	    9.0000 	   28.4746 
    0.8011 	   18.3675 	   23.0000 	    9.0000 	   28.5116 
    0.9079 	   18.3850 	   23.0000 	    9.0000 	   28.5466 
    0.7553 	   18.4050 	   23.0000 	    9.0000 	   28.5866 
    0.9995 	   18.4235 	   23.0000 	    9.0000 	   28.6236 
    0.8469 	   18.4415 	   23.0000 	    9.0000 	   28.6596 
    0.7858 	   18.4600 	   23.0000 	    9.0000 	   28.6966 
    0.9232 	   18.4795 	   23.0000 	    9.0000 	   28.7356 
    0.8164 	   18.4975 	   23.0000 	    9.0000 	   28.7716 
    0.8316 	   18.5165 	   23.0000 	    9.0000 	   28.8096 
    0.8316 	   18.5360 	   23.0000 	    9.0000 	   28.8486 
    0.8621 	   18.5560 	   23.0000 	    9.0000 	   28.8886 
    0.8621 	   18.5750 	   23.0000 	    9.0000 	   28.9266 
    0.8316 	   18.5945 	   23.0000 	    9.0000 	   28.9656 
    0.5264 	   18.6130 	   23.0000 	    9.0000 	   29.0026 
    0.8774 	   18.6325 	   23.0000 	    9.0000 	   29.0416 
    0.8011 	   18.6505 	   23.0000 	    9.0000 	   29.0776 
    0.9537 	   18.6705 	   23.0000 	    9.0000 	   29.1176 
    0.9079 	   18.6900 	   23.0000 	    9.0000 	   29.1566 
    0.9079 	   18.7080 	   23.0000 	    9.0000 	   29.1926 
    0.8621 	   18.7270 	   23.0000 	    9.0000 	   29.2306 
    0.8621 	   18.7460 	   23.0000 	    9.0000 	   29.2686 
    0.6485 	   18.7660 	   23.0000 	    9.0000 	   29.3086 
    0.7858 	   18.7845 	   23.0000 	    9.0000 	   29.3456 
    0.9384 	   18.8025 	   23.0000 	    9.0000 	   29.3816 
    0.8774 	   18.8225 	   23.0000 	    9.0000 	   29.4216 
    0.9232 	   18.8405 	   23.0000 	    9.0000 	   29.4576 
    0.9842 	   18.8600 	   23.0000 	    9.0000 	   29.4966 
    0.8927 	   18.8780 	   23.0000 	    9.0000 	   29.5326 
    0.8469 	   18.8960 	   23.0000 	    9.0000 	   29.5686 
    0.8164 	   18.9155 	   23.0000 	    9.0000 	   29.6076 
    0.8774 	   18.9410 	   23.0000 	    9.0000 	   29.6586 
    0.8469 	   18.9585 	   23.0000 	    9.0000 	   29.6936 
    0.8011 	   18.9780 	   23.0000 	    9.0000 	   29.7326 
    0.8927 	   18.9965 	   23.0000 	    9.0000 	   29.7696 
    0.9232 	   19.0160 	   23.0000 	    9.0000 	   29.8086 
    0.8621 	   19.0350 	   23.0000 	    9.0000 	   29.8466 
    1.0300 	   19.0550 	   23.0000 	    9.0000 	   29.8866 
    0.9537 	   19.0745 	   23.0000 	    9.0000 	   29.9256 
    0.8927 	   19.0910 	   23.0000 	    9.0000 	   29.9586 
    0.8316 	   19.1105 	   23.0000 	    9.0000 	   29.9976 
    0.6332 	   19.1285 	   23.0000 	    9.0000 	   30.0336 
    0.9384 	   19.1480 	   23.0000 	    9.0000 	   30.0726 
    0.9232 	   19.1665 	   23.0000 	    9.0000 	   30.1097 
    1.0452 	   19.1845 	   23.0000 	    9.0000 	   30.1457 
    0.7858 	   19.2045 	   23.0000 	    9.0000 	   30.1857 
    0.8011 	   19.2240 	   23.0000 	    9.0000 	   30.2247 
    0.9689 	   19.2430 	   23.0000 	    9.0000 	   30.2627 
    0.8927 	   19.2615 	   23.0000 	    9.0000 	   30.2997 
    0.7858 	   19.2800 	   23.0000 	    9.0000 	   30.3367 
    0.7858 	   19.2990 	   23.0000 	    9.0000 	   30.3747 
    0.8469 	   19.3175 	   23.0000 	    9.0000 	   30.4117 
    0.9537 	   19.3360 	   23.0000 	    9.0000 	   30.4487 
    0.9079 	   19.3555 	   23.0000 	    9.0000 	   30.4877 
    0.9384 	   19.3750 	   23.0000 	    9.0000 	   30.5267 
    0.8927 	   19.3935 	   23.0000 	    9.0000 	   30.5637 
    0.8774 	   19.4115 	   23.0000 	    9.0000 	   30.5997 
    0.8774 	   19.4300 	   23.0000 	    9.0000 	   30.6367 
    0.8164 	   19.4485 	   23.0000 	    9.0000 	   30.6737 
    0.7858 	   19.4675 	   23.0000 	    9.0000 	   30.7117 
    0.8927 	   19.4860 	   23.0000 	    9.0000 	   30.7487 
    0.9079 	   19.5055 	   23.0000 	    9.0000 	   30.7877 
    0.9842 	   19.5250 	   23.0000 	    9.0000 	   30.8267 
    0.6638 	   19.5450 	   23.0000 	    9.0000 	   30.8667 
    0.8927 	   19.5640 	   23.0000 	    9.0000 	   30.9047 
    0.9079 	   19.5835 	   23.0000 	    9.0000 	   30.9437 
    0.9689 	   19.6020 	   23.0000 	    9.0000 	   30.9807 
    0.8469 	   19.6205 	   23.0000 	    9.0000 	   31.0177 
    0.8469 	   19.6390 	   23.0000 	    9.0000 	   31.0547 
    0.8621 	   19.6575 	   23.0000 	    9.0000 	   31.0917 
    0.7248 	   19.6765 	   23.0000 	    9.0000 	   31.1297 
    0.8469 	   19.6950 	   23.0000 	    9.0000 	   31.1667 
    0.8927 	   19.7125 	   23.0000 	    9.0000 	   31.2017 
    0.8469 	   19.7310 	   23.0000 	    9.0000 	   31.2387 
    0.7858 	   19.7485 	   23.0000 	    9.0000 	   31.2737 
    0.9995 	   19.7675 	   23.0000 	    9.0000 	   31.3117 
    0.9232 	   19.7860 	   23.0000 	    9.0000 	   31.3487 
    0.7858 	   19.8055 	   23.0000 	    9.0000 	   31.3877 
    0.8469 	   19.8235 	   23.0000 	    9.0000 	   31.4237 
    0.9232 	   19.8415 	   23.0000 	    9.0000 	   31.4597 
    0.9842 	   19.8605 	   23.0000 	    9.0000 	   31.4977 
    0.8774 	   19.8795 	   23.0000 	    9.0000 	   31.5357 
    0.8316 	   19.8990 	   23.0000 	    9.0000 	   31.5747 
    0.8774 	   19.9180 	   23.0000 	    9.0000 	   31.6127 
    0.8927 	   19.9410 	   23.0000 	    9.0000 	   31.6587 
    0.9384 	   19.9610 	   23.0000 	    9.0000 	   31.6987 
    0.9842 	   19.9810 	   23.0000 	    9.0000 	   31.7387 
    0.8316 	   19.9990 	   23.0000 	    9.0000 	   31.7747 
    0.9689 	   20.0190 	   23.0000 	    9.0000 	   31.8147 
    0.9995 	   20.0375 	   23.0000 	    9.0000 	   31.8518 
    0.8316 	   20.0580 	   23.0000 	    9.0000 	   31.8928 
    0.8316 	   20.0755 	   23.0000 	    9.0000 	   31.9278 
    0.8774 	   20.0950 	   23.0000 	    9.0000 	   31.9668 
    1.0147 	   20.1135 	   23.0000 	    9.0000 	   32.0038 
    0.8316 	   20.1325 	   23.0000 	    9.0000 	   32.0418 
    1.0147 	   20.1510 	   23.0000 	    9.0000 	   32.0788 
    0.7858 	   20.1700 	   23.0000 	    9.0000 	   32.1168 
    0.7248 	   20.1885 	   23.0000 	    9.0000 	   32.1538 
    1.0605 	   20.2075 	   23.0000 	    9.0000 	   32.1918 
    0.9384 	   20.2260 	   23.0000 	    9.0000 	   32.2288 
    0.8316 	   20.2450 	   23.0000 	    9.0000 	   32.2668 
    0.6790 	   20.2635 	   23.0000 	    9.0000 	   32.3038 
    0.8469 	   20.2820 	   23.0000 	    9.0000 	   32.3408 
    0.8164 	   20.3015 	   23.0000 	    9.0000 	   32.3798 
    0.6638 	   20.3200 	   23.0000 	    9.0000 	   32.4168 
    0.9384 	   20.3385 	   23.0000 	    9.0000 	   32.4538 
    0.9232 	   20.3575 	   23.0000 	    9.0000 	   32.4918 
    0.9384 	   20.3765 	   23.0000 	    9.0000 	   32.5298 
    0.9384 	   20.3955 	   23.0000 	    9.0000 	   32.5678 
    0.9232 	   20.4145 	   23.0000 	    9.0000 	   32.6058 
    0.9232 	   20.4335 	   23.0000 	    9.0000 	   32.6438 
    1.0452 	   20.4535 	   23.0000 	    9.0000 	   32.6838 
    0.8774 	   20.4725 	   23.0000 	    9.0000 	   32.7218 
    0.9537 	   20.4915 	   23.0000 	    9.0000 	   32.7598 
    0.9995 	   20.5105 	   23.0000 	    9.0000 	   32.7978 
    1.0300 	   20.5300 	   23.0000 	    9.0000 	   32.8368 
    0.8621 	   20.5510 	   23.0000 	    9.0000 	   32.8788 
    0.8621 	   20.5700 	   23.0000 	    9.0000 	   32.9168 
    0.7553 	   20.5890 	   23.0000 	    9.0000 	   32.9548 
    0.9995 	   20.6075 	   23.0000 	    9.0000 	   32.9918 
    0.9842 	   20.6265 	   23.0000 	    9.0000 	   33.0298 
    0.9079 	   20.6455 	   23.0000 	    9.0000 	   33.0678 
    0.8011 	   20.6650 	   23.0000 	    9.0000 	   33.1068 
    0.8011 	   20.6845 	   23.0000 	    9.0000 	   33.1458 
    1.0147 	   20.7035 	   23.0000 	    9.0000 	   33.1838 
    0.9079 	   20.7230 	   23.0000 	    9.0000 	   33.2218 
    0.8011 	   20.7420 	   23.0000 	    9.0000 	   33.2598 
    0.6638 	   20.7610 	   23.0000 	    9.0000 	   33.2988 
    1.0147 	   20.7805 	   23.0000 	    9.0000 	   33.3378 
    1.0300 	   20.7990 	   23.0000 	    9.0000 	   33.3748 
    0.7706 	   20.8165 	   23.0000 	    9.0000 	   33.4098 
    1.0300 	   20.8340 	   23.0000 	    9.0000 	   33.4448 
    0.8316 	   20.8530 	   23.0000 	    9.0000 	   33.4818 
    0.5417 	   20.8715 	   23.0000 	    9.0000 	   33.5198 
    0.9079 	   20.8910 	   23.0000 	    9.0000 	   33.5588 
    0.9232 	   20.9100 	   23.0000 	    9.0000 	   33.5969 
    0.9689 	   20.9295 	   23.0000 	    9.0000 	   33.6359 
    0.8316 	   20.9485 	   23.0000 	    9.0000 	   33.6739 
    0.9537 	   20.9680 	   23.0000 	    9.0000 	   33.7129 
    0.9842 	   20.9880 	   23.0000 	    9.0000 	   33.7529 
    0.9995 	   21.0070 	   23.0000 	    9.0000 	   33.7909 
    0.9995 	   21.0260 	   23.0000 	    9.0000 	   33.8289 
    0.6485 	   21.0475 	   23.0000 	    9.0000 	   33.8719 
    0.9079 	   21.0675 	   23.0000 	    9.0000 	   33.9119 
    0.9232 	   21.0865 	   23.0000 	    9.0000 	   33.9499 
    0.9232 	   21.1050 	   23.0000 	    9.0000 	   33.9869 
    0.9232 	   21.1230 	   23.0000 	    9.0000 	   34.0229 
    0.7553 	   21.1430 	   23.0000 	    9.0000 	   34.0629 
    0.9384 	   21.1615 	   23.0000 	    9.0000 	   34.0999 
    0.9842 	   21.1805 	   23.0000 	    9.0000 	   34.1379 
    1.1521 	   21.1995 	   23.0000 	    9.0000 	   34.1759 
    0.9384 	   21.2185 	   23.0000 	    9.0000 	   34.2139 
    0.7401 	   21.2385 	   23.0000 	    9.0000 	   34.2539 
    0.9079 	   21.2580 	   23.0000 	    9.0000 	   34.2929 
    0.9689 	   21.2775 	   23.0000 	    9.0000 	   34.3319 
    1.0147 	   21.2965 	   23.0000 	    9.0000 	   34.3699 
    0.9384 	   21.3150 	   23.0000 	    9.0000 	   34.4069 
    0.8469 	   21.3340 	   23.0000 	    9.0000 	   34.4449 
    0.8621 	   21.3530 	   23.0000 	    9.0000 	   34.4829 
    0.9537 	   21.3725 	   23.0000 	    9.0000 	   34.5219 
    0.8316 	   21.3925 	   23.0000 	    9.0000 	   34.5619 
    1.0300 	   21.4115 	   23.0000 	    9.0000 	   34.5999 
    0.9842 	   21.4305 	   23.0000 	    9.0000 	   34.6379 
    0.7858 	   21.4490 	   23.0000 	    9.0000 	   34.6749 
    0.9232 	   21.4675 	   23.0000 	    9.0000 	   34.7119 
    0.9232 	   21.4875 	   23.0000 	    9.0000 	   34.7519 
    0.9384 	   21.5065 	   23.0000 	    9.0000 	   34.7899 
    1.1063 	   21.5260 	   23.0000 	    9.0000 	   34.8289 
    1.0147 	   21.5475 	   23.0000 	    9.0000 	   34.8719 
    0.9384 	   21.5670 	   23.0000 	    9.0000 	   34.9109 
    0.8469 	   21.5855 	   23.0000 	    9.0000 	   34.9479 
    0.8316 	   21.6055 	   23.0000 	    9.0000 	   34.9879 
    0.8621 	   21.6240 	   23.0000 	    9.0000 	   35.0249 
    0.8164 	   21.6420 	   23.0000 	    9.0000 	   35.0609 
    0.9689 	   21.6605 	   23.0000 	    9.0000 	   35.0979 
    0.9079 	   21.6795 	   23.0000 	    9.0000 	   35.1359 
    1.0147 	   21.6970 	   23.0000 	    9.0000 	   35.1709 
    0.8469 	   21.7160 	   23.0000 	    9.0000 	   35.2089 
    0.8927 	   21.7340 	   23.0000 	    9.0000 	   35.2449 
    0.8774 	   21.7510 	   23.0000 	    9.0000 	   35.2789 
    0.8927 	   21.7675 	   23.0000 	    9.0000 	   35.3120 
    0.9232 	   21.7860 	   23.0000 	    9.0000 	   35.3489 
    0.8927 	   21.8040 	   23.0000 	    9.0000 	   35.3850 
    1.0147 	   21.8225 	   23.0000 	    9.0000 	   35.4220 
    0.6180 	   21.8415 	   23.0000 	    9.0000 	   35.4600 
    0.9232 	   21.8595 	   23.0000 	    9.0000 	   35.4960 
    0.9537 	   21.8785 	   23.0000 	    9.0000 	   35.5340 
    0.9079 	   21.8965 	   23.0000 	    9.0000 	   35.5700 
    0.9384 	   21.9135 	   23.0000 	    9.0000 	   35.6040 
    0.9537 	   21.9305 	   23.0000 	    9.0000 	   35.6380 
    0.9842 	   21.9470 	   23.0000 	    9.0000 	   35.6710 
    0.9384 	   21.9640 	   23.0000 	    9.0000 	   35.7050 
    0.8621 	   21.9820 	   23.0000 	    9.0000 	   35.7410 
    0.9384 	   22.0015 	   23.0000 	    9.0000 	   35.7800 
    0.9384 	   22.0210 	   23.0000 	    9.0000 	   35.8190 
    0.9232 	   22.0405 	   23.0000 	    9.0000 	   35.8580 
    1.0758 	   22.0600 	   23.0000 	    9.0000 	   35.8970 
    0.6790 	   22.0785 	   23.0000 	    9.0000 	   35.9340 
    0.7401 	   22.0975 	   23.0000 	    9.0000 	   35.9720 
    0.9079 	   22.1165 	   23.0000 	    9.0000 	   36.0100 
    0.9232 	   22.1345 	   23.0000 	    9.0000 	   36.0460 
    0.8621 	   22.1535 	   23.0000 	    9.0000 	   36.0840 
    0.9689 	   22.1725 	   23.0000 	    9.0000 	   36.1220 
    0.8621 	   22.1915 	   23.0000 	    9.0000 	   36.1600 
    0.9842 	   22.2095 	   23.0000 	    9.0000 	   36.1960 
    0.7706 	   22.2285 	   23.0000 	    9.0000 	   36.2340 
    0.9537 	   22.2480 	   23.0000 	    9.0000 	   36.2730 
    0.9537 	   22.2670 	   23.0000 	    9.0000 	   36.3110 
    0.7401 	   22.2865 	   23.0000 	    9.0000 	   36.3500 
    0.8927 	   22.3060 	   23.0000 	    9.0000 	   36.3890 
    0.9079 	   22.3260 	   23.0000 	    9.0000 	   36.4290 
    0.9689 	   22.3450 	   23.0000 	    9.0000 	   36.4670 
    0.9232 	   22.3650 	   23.0000 	    9.0000 	   36.5070 
    0.9384 	   22.3845 	   23.0000 	    9.0000 	   36.5460 
    0.8621 	   22.4035 	   23.0000 	    9.0000 	   36.5840 
    0.9995 	   22.4225 	   23.0000 	    9.0000 	   36.6220 
    0.9079 	   22.4410 	   23.0000 	    9.0000 	   36.6590 
    0.9842 	   22.4605 	   23.0000 	    9.0000 	   36.6980 
    0.8164 	   22.4805 	   23.0000 	    9.0000 	   36.7380 
    0.8774 	   22.4995 	   23.0000 	    9.0000 	   36.7760 
    0.9232 	   22.5170 	   23.0000 	    9.0000 	   36.8110 
    1.0300 	   22.5335 	   23.0000 	    9.0000 	   36.8440 
    0.8164 	   22.5530 	   23.0000 	    9.0000 	   36.8830 
    0.8469 	   22.5710 	   23.0000 	    9.0000 	   36.9180 
    0.8316 	   22.5880 	   23.0000 	    9.0000 	   36.9530 
    1.1368 	   22.6055 	   23.0000 	    9.0000 	   36.9880 
    1.0300 	   22.6230 	   23.0000 	    9.0000 	   37.0230 
    0.9689 	   22.6405 	   23.0000 	    9.0000 	   37.0580 
    0.9537 	   22.6580 	   23.0000 	    9.0000 	   37.0931 
    1.0452 	   22.6755 	   23.0000 	    9.0000 	   37.1281 
    1.0452 	   22.6930 	   23.0000 	    9.0000 	   37.1631 
    0.9232 	   22.7105 	   23.0000 	    9.0000 	   37.1981 
    0.8927 	   22.7280 	   23.0000 	    9.0000 	   37.2331 
    0.9384 	   22.7455 	   23.0000 	    9.0000 	   37.2681 
    0.5875 	   22.7630 	   23.0000 	    9.0000 	   37.3031 
    0.9232 	   22.7805 	   23.0000 	    9.0000 	   37.3381 
    0.8621 	   22.7975 	   23.0000 	    9.0000 	   37.3721 
    0.9232 	   22.8150 	   23.0000 	    9.0000 	   37.4071 
    0.9537 	   22.8345 	   23.0000 	    9.0000 	   37.4451 
    0.9842 	   22.8540 	   23.0000 	    9.0000 	   37.4841 
    0.9689 	   22.8730 	   23.0000 	    9.0000 	   37.5221 
    1.0147 	   22.8915 	   23.0000 	    9.0000 	   37.5591 
    1.0910 	   22.9110 	   23.0000 	    9.0000 	   37.5981 
    0.8927 	   22.9315 	   23.0000 	    9.0000 	   37.6391 
    0.8316 	   22.9500 	   23.0000 	    9.0000 	   37.6761 
    0.9232 	   22.9700 	   23.0000 	    9.0000 	   37.7161 
    0.8621 	   22.9890 	   23.0000 	    9.0000 	   37.7541 
    0.9689 	   23.0080 	   23.0000 	    9.0000 	   37.7921 
    0.8621 	   23.0285 	   23.0000 	    9.0000 	   37.8331 
    1.0452 	   23.0490 	   23.0000 	    9.0000 	   37.8741 
    1.1063 	   23.0675 	   23.0000 	    9.0000 	   37.9111 
    0.7858 	   23.0850 	   23.0000 	    9.0000 	   37.9461 
    1.0605 	   23.1025 	   23.0000 	    9.0000 	   37.9811 
    1.0910 	   23.1195 	   23.0000 	    9.0000 	   38.0151 
    1.0910 	   23.1370 	   23.0000 	    9.0000 	   38.0501 
    0.8621 	   23.1545 	   23.0000 	    9.0000 	   38.0851 
    1.1063 	   23.1720 	   23.0000 	    9.0000 	   38.1201 
    0.9384 	   23.1895 	   23.0000 	    9.0000 	   38.1551 
    0.9842 	   23.2065 	   23.0000 	    9.0000 	   38.1891 
    1.0910 	   23.2245 	   23.0000 	    9.0000 	   38.2241 
    0.8927 	   23.2415 	   23.0000 	    9.0000 	   38.2591 
    0.9384 	   23.2595 	   23.0000 	    9.0000 	   38.2951 
    1.0300 	   23.2775 	   23.0000 	    9.0000 	   38.3311 
    0.9689 	   23.2950 	   23.0000 	    9.0000 	   38.3661 
    1.0452 	   23.3120 	   23.0000 	    9.0000 	   38.4001 
    0.7858 	   23.3295 	   23.0000 	    9.0000 	   38.4351 
    0.9384 	   23.3465 	   23.0000 	    9.0000 	   38.4691 
    0.9689 	   23.3665 	   23.0000 	    9.0000 	   38.5091 
    1.0605 	   23.3870 	   23.0000 	    9.0000 	   38.5501 
    0.9995 	   23.4065 	   23.0000 	    9.0000 	   38.5891 
    0.9537 	   23.4260 	   23.0000 	    9.0000 	   38.6281 
    0.9995 	   23.4460 	   23.0000 	    9.0000 	   38.6681 
    0.9537 	   23.4655 	   23.0000 	    9.0000 	   38.7071 
    0.9537 	   23.4855 	   23.0000 	    9.0000 	   38.7471 
    0.8927 	   23.5050 	   23.0000 	    9.0000 	   38.7861 
    0.8621 	   23.5240 	   23.0000 	    9.0000 	   38.8242 
    0.9842 	   23.5440 	   23.0000 	    9.0000 	   38.8642 
    0.8469 	   23.5615 	   23.0000 	    9.0000 	   38.8992 
    0.9079 	   23.5790 	   23.0000 	    9.0000 	   38.9342 
    0.9842 	   23.5965 	   23.0000 	    9.0000 	   38.9692 
    1.0300 	   23.6145 	   23.0000 	    9.0000 	   39.0052 
    0.9689 	   23.6325 	   23.0000 	    9.0000 	   39.0412 
    1.0147 	   23.6495 	   23.0000 	    9.0000 	   39.0752 
    0.8011 	   23.6685 	   23.0000 	    9.0000 	   39.1132 
    0.9384 	   23.6875 	   23.0000 	    9.0000 	   39.1512 
    0.9537 	   23.7060 	   23.0000 	    9.0000 	   39.1882 
    1.0147 	   23.7250 	   23.0000 	    9.0000 	   39.2262 
    0.6485 	   23.7445 	   23.0000 	    9.0000 	   39.2652 
    0.9232 	   23.7630 	   23.0000 	    9.0000 	   39.3022 
    0.8469 	   23.7805 	   23.0000 	    9.0000 	   39.3372 
    0.9232 	   23.7980 	   23.0000 	    9.0000 	   39.3722 
    0.7401 	   23.8160 	   23.0000 	    9.0000 	   39.4082 
    0.8469 	   23.8330 	   23.0000 	    9.0000 	   39.4422 
    1.1368 	   23.8510 	   23.0000 	    9.0000 	   39.4782 
    0.9842 	   23.8690 	   23.0000 	    9.0000 	   39.5142 
    0.9842 	   23.8865 	   23.0000 	    9.0000 	   39.5492 
    0.9079 	   23.9040 	   23.0000 	    9.0000 	   39.5842 
    0.8469 	   23.9220 	   23.0000 	    9.0000 	   39.6202 
    1.0452 	   23.9410 	   23.0000 	    9.0000 	   39.6582 
    1.0758 	   23.9585 	   23.0000 	    9.0000 	   39.6932 
    0.8469 	   23.9765 	   23.0000 	    9.0000 	   39.7292 
    1.0300 	   23.9945 	   23.0000 	    9.0000 	   39.7652 
    0.9537 	   24.0125 	   23.0000 	    9.0000 	   39.8012 
    0.9537 	   24.0295 	   23.0000 	    9.0000 	   39.8352 
    0.8774 	   24.0485 	   23.0000 	    9.0000 	   39.8732 
    0.9689 	   24.0655 	   23.0000 	    9.0000 	   39.9072 
    0.9079 	   24.0845 	   23.0000 	    9.0000 	   39.9452 
    0.9232 	   24.1040 	   23.0000 	    9.0000 	   39.9842 
    0.9995 	   24.1245 	   23.0000 	    9.0000 	   40.0252 
    0.9689 	   24.1445 	   23.0000 	    9.0000 	   40.0652 
    0.9842 	   24.1635 	   23.0000 	    9.0000 	   40.1032 
    0.9842 	   24.1815 	   23.0000 	    9.0000 	   40.1392 
    0.6790 	   24.2000 	   23.0000 	    9.0000 	   40.1762 
    1.1368 	   24.2195 	   23.0000 	    9.0000 	   40.2152 
    0.9232 	   24.2370 	   23.0000 	    9.0000 	   40.2502 
    0.9079 	   24.2550 	   23.0000 	    9.0000 	   40.2862 
    1.1215 	   24.2725 	   23.0000 	    9.0000 	   40.3212 
    0.9842 	   24.2935 	   23.0000 	    9.0000 	   40.3622 
    0.9537 	   24.3180 	   23.0000 	    9.0000 	   40.4122 
    1.0758 	   24.3355 	   23.0000 	    9.0000 	   40.4472 
    1.1063 	   24.3545 	   23.0000 	    9.0000 	   40.4852 
    0.9689 	   24.3715 	   23.0000 	    9.0000 	   40.5192 
    1.0758 	   24.3890 	   23.0000 	    9.0000 	   40.5542 
    0.8621 	   24.4075 	   23.0000 	    9.0000 	   40.5913 
    0.8927 	   24.4265 	   23.0000 	    9.0000 	   40.6293 
    0.9537 	   24.4450 	   23.0000 	    9.0000 	   40.6663 
    0.9537 	   24.4625 	   23.0000 	    9.0000 	   40.7013 
    0.9689 	   24.4805 	   23.0000 	    9.0000 	   40.7373 
    0.9842 	   24.4995 	   23.0000 	    9.0000 	   40.7753 
    0.8927 	   24.5175 	   23.0000 	    9.0000 	   40.8113 
    0.9537 	   24.5360 	   23.0000 	    9.0000 	   40.8483 
    0.9842 	   24.5570 	   23.0000 	    9.0000 	   40.8903 
    1.0300 	   24.5760 	   23.0000 	    9.0000 	   40.9283 
    0.9537 	   24.5950 	   23.0000 	    9.0000 	   40.9663 
    0.7553 	   24.6140 	   23.0000 	    9.0000 	   41.0043 
    0.9384 	   24.6325 	   23.0000 	    9.0000 	   41.0413 
    0.9842 	   24.6530 	   23.0000 	    9.0000 	   41.0823 
    1.0300 	   24.6715 	   23.0000 	    9.0000 	   41.1193 
    0.9842 	   24.6895 	   23.0000 	    9.0000 	   41.1553 
    0.9689 	   24.7075 	   23.0000 	    9.0000 	   41.1913 
    1.0452 	   24.7245 	   23.0000 	    9.0000 	   41.2253 
    0.8621 	   24.7425 	   23.0000 	    9.0000 	   41.2613 
    0.9232 	   24.7610 	   23.0000 	    9.0000 	   41.2983 
    0.9842 	   24.7795 	   23.0000 	    9.0000 	   41.3353 
    1.0910 	   24.7975 	   23.0000 	    9.0000 	   41.3713 
    0.8774 	   24.8210 	   23.0000 	    9.0000 	   41.4183 
    0.9842 	   24.8415 	   23.0000 	    9.0000 	   41.4593 
    0.9995 	   24.8595 	   23.0000 	    9.0000 	   41.4953 
    1.0300 	   24.8780 	   23.0000 	    9.0000 	   41.5323 
    1.0758 	   24.8955 	   23.0000 	    9.0000 	   41.5673 
    0.9842 	   24.9135 	   23.0000 	    9.0000 	   41.6033 
    1.0452 	   24.9310 	   23.0000 	    9.0000 	   41.6383 
    0.9079 	   24.9500 	   23.0000 	    9.0000 	   41.6763 
    0.9079 	   24.9685 	   23.0000 	    9.0000 	   41.7133 
    1.0300 	   24.9870 	   23.0000 	    9.0000 	   41.7503 
    0.9842 	   25.0050 	   23.0000 	    9.0000 	   41.7863 
    1.0452 	   25.0270 	   23.0000 	    9.0000 	   41.8303 
    0.8164 	   25.0470 	   23.0000 	    9.0000 	   41.8693 
    1.0758 	   25.0660 	   23.0000 	    9.0000 	   41.9083 
    1.0300 	   25.0840 	   23.0000 	    9.0000 	   41.9443 
    1.1826 	   25.1025 	   23.0000 	    9.0000 	   41.9813 
    0.7706 	   25.1215 	   23.0000 	    9.0000 	   42.0193 
    0.9689 	   25.1390 	   23.0000 	    9.0000 	   42.0543 
    1.0147 	   25.1575 	   23.0000 	    9.0000 	   42.0913 
    1.0452 	   25.1755 	   23.0000 	    9.0000 	   42.1273 
    0.9842 	   25.1945 	   23.0000 	    9.0000 	   42.1653 
    0.8927 	   25.2130 	   23.0000 	    9.0000 	   42.2023 
    0.9995 	   25.2315 	   23.0000 	    9.0000 	   42.2393 
    0.8164 	   25.2500 	   23.0000 	    9.0000 	   42.2763 
    1.0910 	   25.2680 	   23.0000 	    9.0000 	   42.3123 
    0.9079 	   25.2865 	   23.0000 	    9.0000 	   42.3493 
    1.0300 	   25.3055 	   23.0000 	    9.0000 	   42.3874 
    1.0147 	   25.3240 	   23.0000 	    9.0000 	   42.4244 
    1.0605 	   25.3435 	   23.0000 	    9.0000 	   42.4634 
    0.9689 	   25.3620 	   23.0000 	    9.0000 	   42.5004 
    1.1215 	   25.3795 	   23.0000 	    9.0000 	   42.5354 
    1.0147 	   25.3975 	   23.0000 	    9.0000 	   42.5714 
    1.1063 	   25.4150 	   23.0000 	    9.0000 	   42.6064 
    1.0147 	   25.4325 	   23.0000 	    9.0000 	   42.6414 
    1.0147 	   25.4510 	   23.0000 	    9.0000 	   42.6784 
    1.0605 	   25.4700 	   23.0000 	    9.0000 	   42.7164 
    1.0758 	   25.4885 	   23.0000 	    9.0000 	   42.7534 
    0.9995 	   25.5080 	   23.0000 	    9.0000 	   42.7924 
    1.0605 	   25.5275 	   23.0000 	    9.0000 	   42.8314 
    0.8621 	   25.5480 	   23.0000 	    9.0000 	   42.8724 
    0.9537 	   25.5680 	   23.0000 	    9.0000 	   42.9124 
    0.8927 	   25.5875 	   23.0000 	    9.0000 	   42.9514 
    0.9995 	   25.6085 	   23.0000 	    9.0000 	   42.9924 
    1.0605 	   25.6285 	   23.0000 	    9.0000 	   43.0334 
    1.1063 	   25.6485 	   23.0000 	    9.0000 	   43.0734 
    1.0147 	   25.6690 	   23.0000 	    9.0000 	   43.1144 
    1.0605 	   25.6890 	   23.0000 	    9.0000 	   43.1544 
    0.9995 	   25.7095 	   23.0000 	    9.0000 	   43.1954 
    0.8469 	   25.7305 	   23.0000 	    9.0000 	   43.2374 
    1.0452 	   25.7510 	   23.0000 	    9.0000 	   43.2784 
    1.0605 	   25.7710 	   23.0000 	    9.0000 	   43.3184 
    1.0452 	   25.7915 	   23.0000 	    9.0000 	   43.3594 
    1.1215 	   25.8110 	   23.0000 	    9.0000 	   43.3984 
    1.2894 	   25.8310 	   23.0000 	    9.0000 	   43.4384 
    1.2589 	   25.8510 	   23.0000 	    9.0000 	   43.4784 
    1.0452 	   25.8700 	   23.0000 	    9.0000 	   43.5164 
    0.9232 	   25.8895 	   23.0000 	    9.0000 	   43.5554 
    0.7401 	   25.9075 	   23.0000 	    9.0000 	   43.5914 
    1.0910 	   25.9270 	   23.0000 	    9.0000 	   43.6304 
    1.0300 	   25.9450 	   23.0000 	    9.0000 	   43.6664 
    1.0452 	   25.9640 	   23.0000 	    9.0000 	   43.7044 
    0.8774 	   25.9815 	   23.0000 	    9.0000 	   43.7394 
    0.8164 	   25.9985 	   23.0000 	    9.0000 	   43.7734 
    0.9384 	   26.0160 	   23.0000 	    9.0000 	   43.8084 
    1.0605 	   26.0340 	   23.0000 	    9.0000 	   43.8444 
    1.1368 	   26.0535 	   23.0000 	    9.0000 	   43.8834 
    0.9384 	   26.0710 	   23.0000 	    9.0000 	   43.9184 
    0.9384 	   26.0905 	   23.0000 	    9.0000 	   43.9574 
    1.1368 	   26.1115 	   23.0000 	    9.0000 	   43.9994 
    0.9384 	   26.1320 	   23.0000 	    9.0000 	   44.0404 
    1.0147 	   26.1515 	   23.0000 	    9.0000 	   44.0795 
    1.0910 	   26.1710 	   23.0000 	    9.0000 	   44.1185 
    1.0147 	   26.1910 	   23.0000 	    9.0000 	   44.1585 
    0.9842 	   26.2105 	   23.0000 	    9.0000 	   44.1975 
    0.9537 	   26.2300 	   23.0000 	    9.0000 	   44.2365 
    1.0452 	   26.2490 	   23.0000 	    9.0000 	   44.2745 
    1.0605 	   26.2675 	   23.0000 	    9.0000 	   44.3115 
    0.9537 	   26.2850 	   23.0000 	    9.0000 	   44.3465 
    1.0300 	   26.3050 	   23.0000 	    9.0000 	   44.3865 
    1.1521 	   26.3245 	   23.0000 	    9.0000 	   44.4255 
    1.0300 	   26.3425 	   23.0000 	    9.0000 	   44.4615 
    1.1521 	   26.3595 	   23.0000 	    9.0000 	   44.4955 
    1.0910 	   26.3770 	   23.0000 	    9.0000 	   44.5305 
    1.1368 	   26.3955 	   23.0000 	    9.0000 	   44.5675 
    0.9842 	   26.4150 	   23.0000 	    9.0000 	   44.6065 
    0.9079 	   26.4335 	   23.0000 	    9.0000 	   44.6435 
    1.0147 	   26.4525 	   23.0000 	    9.0000 	   44.6815 
    0.6943 	   26.4705 	   23.0000 	    9.0000 	   44.7175 
    1.1368 	   26.4880 	   23.0000 	    9.0000 	   44.7525 
    1.1521 	   26.5045 	   23.0000 	    9.0000 	   44.7855 
    0.9995 	   26.5215 	   23.0000 	    9.0000 	   44.8195 
    1.0910 	   26.5410 	   23.0000 	    9.0000 	   44.8585 
    1.0758 	   26.5595 	   23.0000 	    9.0000 	   44.8955 
    1.0147 	   26.5770 	   23.0000 	    9.0000 	   44.9305 
    1.0300 	   26.5960 	   23.0000 	    9.0000 	   44.9685 
    0.9995 	   26.6155 	   23.0000 	    9.0000 	   45.0075 
    1.1673 	   26.6345 	   23.0000 	    9.0000 	   45.0455 
    1.1215 	   26.6535 	   23.0000 	    9.0000 	   45.0835 
    1.0758 	   26.6750 	   23.0000 	    9.0000 	   45.1265 
    1.0452 	   26.6950 	   23.0000 	    9.0000 	   45.1665 
    0.9995 	   26.7145 	   23.0000 	    9.0000 	   45.2055 
    1.1521 	   26.7335 	   23.0000 	    9.0000 	   45.2435 
    0.9079 	   26.7540 	   23.0000 	    9.0000 	   45.2845 
    1.0300 	   26.7730 	   23.0000 	    9.0000 	   45.3225 
    0.9995 	   26.7935 	   23.0000 	    9.0000 	   45.3635 
    1.0910 	   26.8140 	   23.0000 	    9.0000 	   45.4045 
    0.9537 	   26.8340 	   23.0000 	    9.0000 	   45.4445 
    1.0300 	   26.8535 	   23.0000 	    9.0000 	   45.4835 
    1.0147 	   26.8825 	   23.0000 	    9.0000 	   45.5415 
    1.1215 	   26.9110 	   23.0000 	    9.0000 	   45.5985 
    0.7095 	   26.9350 	   23.0000 	    9.0000 	   45.6465 
    1.1063 	   26.9540 	   23.0000 	    9.0000 	   45.6845 
    1.1215 	   26.9720 	   23.0000 	    9.0000 	   45.7205 
    0.9232 	   26.9905 	   23.0000 	    9.0000 	   45.7575 
    0.7706 	   27.0070 	   23.0000 	    9.0000 	   45.7906 
    0.9232 	   27.0245 	   23.0000 	    9.0000 	   45.8256 
    1.0910 	   27.0440 	   23.0000 	    9.0000 	   45.8646 
    0.9689 	   27.0635 	   23.0000 	    9.0000 	   45.9036 
    1.0300 	   27.0840 	   23.0000 	    9.0000 	   45.9446 
    1.0300 	   27.1045 	   23.0000 	    9.0000 	   45.9856 
    1.1521 	   27.1250 	   23.0000 	    9.0000 	   46.0266 
    1.0758 	   27.1445 	   23.0000 	    9.0000 	   46.0656 
    1.1063 	   27.1650 	   23.0000 	    9.0000 	   46.1066 
    1.0910 	   27.1855 	   23.0000 	    9.0000 	   46.1476 
    1.1063 	   27.2065 	   23.0000 	    9.0000 	   46.1896 
    1.0605 	   27.2250 	   23.0000 	    9.0000 	   46.2266 
    1.0605 	   27.2435 	   23.0000 	    9.0000 	   46.2636 
    1.0758 	   27.2615 	   23.0000 	    9.0000 	   46.2996 
    1.0147 	   27.2800 	   23.0000 	    9.0000 	   46.3366 
    1.0300 	   27.2975 	   23.0000 	    9.0000 	   46.3716 
    1.1215 	   27.3170 	   23.0000 	    9.0000 	   46.4106 
    1.1368 	   27.3360 	   23.0000 	    9.0000 	   46.4486 
    1.0147 	   27.3540 	   23.0000 	    9.0000 	   46.4846 
    1.0452 	   27.3725 	   23.0000 	    9.0000 	   46.5216 
    1.1978 	   27.3900 	   23.0000 	    9.0000 	   46.5566 
    1.0605 	   27.4085 	   23.0000 	    9.0000 	   46.5936 
    1.1063 	   27.4270 	   23.0000 	    9.0000 	   46.6306 
    1.2284 	   27.4470 	   23.0000 	    9.0000 	   46.6706 
    1.1215 	   27.4635 	   23.0000 	    9.0000 	   46.7036 
    1.0300 	   27.4810 	   23.0000 	    9.0000 	   46.7386 
    0.9842 	   27.4980 	   23.0000 	    9.0000 	   46.7726 
    1.0605 	   27.5170 	   23.0000 	    9.0000 	   46.8106 
    1.0300 	   27.5350 	   23.0000 	    9.0000 	   46.8466 
    1.0147 	   27.5545 	   23.0000 	    9.0000 	   46.8856 
    1.0605 	   27.5740 	   23.0000 	    9.0000 	   46.9246 
    0.9995 	   27.5945 	   23.0000 	    9.0000 	   46.9656 
    1.0758 	   27.6145 	   23.0000 	    9.0000 	   47.0056 
    1.1063 	   27.6355 	   23.0000 	    9.0000 	   47.0476 
    1.1063 	   27.6565 	   23.0000 	    9.0000 	   47.0896 
    1.0605 	   27.6760 	   23.0000 	    9.0000 	   47.1286 
    1.2131 	   27.6960 	   23.0000 	    9.0000 	   47.1686 
    1.0758 	   27.7160 	   23.0000 	    9.0000 	   47.2086 
    1.0605 	   27.7355 	   23.0000 	    9.0000 	   47.2476 
    1.0605 	   27.7560 	   23.0000 	    9.0000 	   47.2886 
    1.0300 	   27.7760 	   23.0000 	    9.0000 	   47.3286 
    1.0758 	   27.7960 	   23.0000 	    9.0000 	   47.3686 
    1.0605 	   27.8160 	   23.0000 	    9.0000 	   47.4086 
    0.9689 	   27.8370 	   23.0000 	    9.0000 	   47.4506 
    1.0300 	   27.8565 	   23.0000 	    9.0000 	   47.4896 
    1.2284 	   27.8765 	   23.0000 	    9.0000 	   47.5296 
    1.0758 	   27.8970 	   23.0000 	    9.0000 	   47.5706 
    1.1826 	   27.9155 	   23.0000 	    9.0000 	   47.6077 
    0.9995 	   27.9360 	   23.0000 	    9.0000 	   47.6487 
    1.0452 	   27.9550 	   23.0000 	    9.0000 	   47.6867 
    1.0605 	   27.9730 	   23.0000 	    9.0000 	   47.7227 
    1.1215 	   27.9920 	   23.0000 	    9.0000 	   47.7607 
    1.1063 	   28.0095 	   23.0000 	    9.0000 	   47.7957 
    0.9995 	   28.0265 	   23.0000 	    9.0000 	   47.8297 
    1.1368 	   28.0455 	   23.0000 	    9.0000 	   47.8677 
    1.1063 	   28.0635 	   23.0000 	    9.0000 	   47.9037 
    1.1063 	   28.0820 	   23.0000 	    9.0000 	   47.9407 
    1.1063 	   28.1025 	   23.0000 	    9.0000 	   47.9817 
    1.1063 	   28.1215 	   23.0000 	    9.0000 	   48.0197 
    1.1215 	   28.1420 	   23.0000 	    9.0000 	   48.0607 
    1.0300 	   28.1615 	   23.0000 	    9.0000 	   48.0997 
    0.9232 	   28.1815 	   23.0000 	    9.0000 	   48.1397 
    1.1521 	   28.2020 	   23.0000 	    9.0000 	   48.1807 
    1.0605 	   28.2220 	   23.0000 	    9.0000 	   48.2207 
    1.0452 	   28.2410 	   23.0000 	    9.0000 	   48.2587 
    1.1826 	   28.2610 	   23.0000 	    9.0000 	   48.2987 
    1.2131 	   28.2815 	   23.0000 	    9.0000 	   48.3397 
    1.2894 	   28.3030 	   23.0000 	    9.0000 	   48.3827 
    1.1215 	   28.3250 	   23.0000 	    9.0000 	   48.4267 
    1.0300 	   28.3455 	   23.0000 	    9.0000 	   48.4677 
    0.9842 	   28.3670 	   23.0000 	    9.0000 	   48.5107 
    1.1215 	   28.3860 	   23.0000 	    9.0000 	   48.5487 
    1.1063 	   28.4065 	   23.0000 	    9.0000 	   48.5897 
    0.9537 	   28.4245 	   23.0000 	    9.0000 	   48.6257 
    1.0758 	   28.4430 	   23.0000 	    9.0000 	   48.6627 
    1.2284 	   28.4630 	   23.0000 	    9.0000 	   48.7027 
    1.0300 	   28.4805 	   23.0000 	    9.0000 	   48.7377 
    1.2284 	   28.4975 	   23.0000 	    9.0000 	   48.7717 
    1.0300 	   28.5165 	   23.0000 	    9.0000 	   48.8097 
    1.0758 	   28.5360 	   23.0000 	    9.0000 	   48.8487 
    1.0910 	   28.5570 	   23.0000 	    9.0000 	   48.8907 
    1.1215 	   28.5765 	   23.0000 	    9.0000 	   48.9297 
    1.0300 	   28.5975 	   23.0000 	    9.0000 	   48.9717 
    1.0758 	   28.6175 	   23.0000 	    9.0000 	   49.0117 
    1.1215 	   28.6375 	   23.0000 	    9.0000 	   49.0517 
    1.0452 	   28.6590 	   23.0000 	    9.0000 	   49.0947 
    1.1063 	   28.6790 	   23.0000 	    9.0000 	   49.1347 
    0.9995 	   28.6985 	   23.0000 	    9.0000 	   49.1737 
    1.0147 	   28.7175 	   23.0000 	    9.0000 	   49.2117 
    1.1521 	   28.7390 	   23.0000 	    9.0000 	   49.2547 
    1.0605 	   28.7595 	   23.0000 	    9.0000 	   49.2957 
    1.0300 	   28.7785 	   23.0000 	    9.0000 	   49.3338 
    1.1215 	   28.7980 	   23.0000 	    9.0000 	   49.3728 
    1.0758 	   28.8180 	   23.0000 	    9.0000 	   49.4128 
    1.1521 	   28.8370 	   23.0000 	    9.0000 	   49.4508 
    1.0758 	   28.8565 	   23.0000 	    9.0000 	   49.4898 
    0.9384 	   28.8755 	   23.0000 	    9.0000 	   49.5278 
    1.1063 	   28.8965 	   23.0000 	    9.0000 	   49.5698 
    1.0300 	   28.9160 	   23.0000 	    9.0000 	   49.6088 
    0.9995 	   28.9360 	   23.0000 	    9.0000 	   49.6488 
    1.1063 	   28.9555 	   23.0000 	    9.0000 	   49.6878 
    1.0147 	   28.9780 	   23.0000 	    9.0000 	   49.7328 
    1.0452 	   28.9970 	   23.0000 	    9.0000 	   49.7708 
    1.1521 	   29.0170 	   23.0000 	    9.0000 	   49.8108 
    0.9689 	   29.0350 	   23.0000 	    9.0000 	   49.8468 
    1.1368 	   29.0545 	   23.0000 	    9.0000 	   49.8858 
    1.0758 	   29.0735 	   23.0000 	    9.0000 	   49.9238 
    1.0758 	   29.0920 	   23.0000 	    9.0000 	   49.9608 
    1.1215 	   29.1105 	   23.0000 	    9.0000 	   49.9978 
    1.1978 	   29.1295 	   23.0000 	    9.0000 	   50.0358 
    1.0452 	   29.1485 	   23.0000 	    9.0000 	   50.0738 
    1.1521 	   29.1670 	   23.0000 	    9.0000 	   50.1108 
    1.1215 	   29.1855 	   23.0000 	    9.0000 	   50.1478 
    1.1215 	   29.2040 	   23.0000 	    9.0000 	   50.1848 
    0.9384 	   29.2225 	   23.0000 	    9.0000 	   50.2218 
    1.1063 	   29.2430 	   23.0000 	    9.0000 	   50.2628 
    1.0758 	   29.2650 	   23.0000 	    9.0000 	   50.3068 
    1.2131 	   29.2830 	   23.0000 	    9.0000 	   50.3428 
    1.0300 	   29.3000 	   23.0000 	    9.0000 	   50.3768 
    1.3504 	   29.3175 	   23.0000 	    9.0000 	   50.4118 
    1.2589 	   29.3370 	   23.0000 	    9.0000 	   50.4508 
    1.1368 	   29.3595 	   23.0000 	    9.0000 	   50.4958 
    1.0452 	   29.3800 	   23.0000 	    9.0000 	   50.5368 
    1.1063 	   29.4000 	   23.0000 	    9.0000 	   50.5768 
    1.2284 	   29.4195 	   23.0000 	    9.0000 	   50.6158 
    0.9842 	   29.4390 	   23.0000 	    9.0000 	   50.6548 
    1.0605 	   29.4590 	   23.0000 	    9.0000 	   50.6948 
    1.0910 	   29.4790 	   23.0000 	    9.0000 	   50.7348 
    0.9995 	   29.4975 	   23.0000 	    9.0000 	   50.7718 
    1.1978 	   29.5165 	   23.0000 	    9.0000 	   50.8098 
    1.1978 	   29.5375 	   23.0000 	    9.0000 	   50.8518 
    1.0910 	   29.5565 	   23.0000 	    9.0000 	   50.8898 
    1.2131 	   29.5760 	   23.0000 	    9.0000 	   50.9288 
    1.0910 	   29.5970 	   23.0000 	    9.0000 	   50.9708 
    1.0147 	   29.6180 	   23.0000 	    9.0000 	   51.0128 
    1.1826 	   29.6385 	   23.0000 	    9.0000 	   51.0538 
    1.1063 	   29.6590 	   23.0000 	    9.0000 	   51.0949 
    1.0758 	   29.6790 	   23.0000 	    9.0000 	   51.1349 
    1.0758 	   29.6990 	   23.0000 	    9.0000 	   51.1749 
    1.1978 	   29.7190 	   23.0000 	    9.0000 	   51.2149 
    1.1673 	   29.7395 	   23.0000 	    9.0000 	   51.2559 
    1.1368 	   29.7590 	   23.0000 	    9.0000 	   51.2949 
    1.1368 	   29.7795 	   23.0000 	    9.0000 	   51.3359 
    1.1826 	   29.8000 	   23.0000 	    9.0000 	   51.3769 
    1.1978 	   29.8205 	   23.0000 	    9.0000 	   51.4179 
    1.0910 	   29.8420 	   23.0000 	    9.0000 	   51.4609 
    1.1673 	   29.8615 	   23.0000 	    9.0000 	   51.4999 
    1.1826 	   29.8820 	   23.0000 	    9.0000 	   51.5409 
    1.1063 	   29.9020 	   23.0000 	    9.0000 	   51.5809 
    0.9384 	   29.9220 	   23.0000 	    9.0000 	   51.6209 
    1.1368 	   29.9425 	   23.0000 	    9.0000 	   51.6619 
    1.1673 	   29.9625 	   23.0000 	    9.0000 	   51.7019 
    1.1063 	   29.9820 	   23.0000 	    9.0000 	   51.7409 
    0.8011 	   30.0020 	   23.0000 	    9.0000 	   51.7809 
    1.1978 	   30.0215 	   23.0000 	    9.0000 	   51.8199 
    1.1368 	   30.0425 	   23.0000 	    9.0000 	   51.8619 
    1.1673 	   30.0630 	   23.0000 	    9.0000 	   51.9029 
    0.9232 	   30.0830 	   23.0000 	    9.0000 	   51.9429 
    1.1521 	   30.1040 	   23.0000 	    9.0000 	   51.9849 
    1.1673 	   30.1250 	   23.0000 	    9.0000 	   52.0269 
    1.2131 	   30.1450 	   23.0000 	    9.0000 	   52.0669 
    1.1521 	   30.1660 	   23.0000 	    9.0000 	   52.1089 
    1.1978 	   30.1850 	   23.0000 	    9.0000 	   52.1459 
    1.1063 	   30.2030 	   23.0000 	    9.0000 	   52.1829 
    1.3199 	   30.2215 	   23.0000 	    9.0000 	   52.2199 
    1.1978 	   30.2395 	   23.0000 	    9.0000 	   52.2559 
    1.2131 	   30.2580 	   23.0000 	    9.0000 	   52.2929 
    1.2131 	   30.2765 	   23.0000 	    9.0000 	   52.3299 
    1.1978 	   30.2945 	   23.0000 	    9.0000 	   52.3659 
    1.1978 	   30.3125 	   23.0000 	    9.0000 	   52.4019 
    1.3046 	   30.3325 	   23.0000 	    9.0000 	   52.4419 
    1.1215 	   30.3510 	   23.0000 	    9.0000 	   52.4789 
    1.1673 	   30.3690 	   23.0000 	    9.0000 	   52.5149 
    1.2589 	   30.3880 	   23.0000 	    9.0000 	   52.5529 
    1.2284 	   30.4080 	   23.0000 	    9.0000 	   52.5929 
    1.2436 	   30.4280 	   23.0000 	    9.0000 	   52.6329 
    1.2284 	   30.4485 	   23.0000 	    9.0000 	   52.6739 
    1.1673 	   30.4685 	   23.0000 	    9.0000 	   52.7139 
    1.0910 	   30.4895 	   23.0000 	    9.0000 	   52.7559 
    1.1063 	   30.5105 	   23.0000 	    9.0000 	   52.7980 
    1.1673 	   30.5310 	   23.0000 	    9.0000 	   52.8390 
    1.1521 	   30.5510 	   23.0000 	    9.0000 	   52.8790 
    1.2436 	   30.5715 	   23.0000 	    9.0000 	   52.9200 
    1.3199 	   30.5915 	   23.0000 	    9.0000 	   52.9600 
    1.1215 	   30.6125 	   23.0000 	    9.0000 	   53.0020 
    1.1673 	   30.6330 	   23.0000 	    9.0000 	   53.0430 
    1.1521 	   30.6530 	   23.0000 	    9.0000 	   53.0830 
    1.2131 	   30.6740 	   23.0000 	    9.0000 	   53.1250 
    1.0910 	   30.6930 	   23.0000 	    9.0000 	   53.1630 
    1.0452 	   30.7215 	   23.0000 	    9.0000 	   53.2200 
    1.1673 	   30.7390 	   23.0000 	    9.0000 	   53.2550 
    1.3046 	   30.7575 	   23.0000 	    9.0000 	   53.2920 
    1.2589 	   30.7760 	   23.0000 	    9.0000 	   53.3290 
    1.1063 	   30.7945 	   23.0000 	    9.0000 	   53.3660 
    1.0910 	   30.8125 	   23.0000 	    9.0000 	   53.4020 
    1.2589 	   30.8315 	   23.0000 	    9.0000 	   53.4400 
    1.1368 	   30.8495 	   23.0000 	    9.0000 	   53.4760 
    1.1826 	   30.8670 	   23.0000 	    9.0000 	   53.5110 
    1.1521 	   30.8855 	   23.0000 	    9.0000 	   53.5480 
    1.0758 	   30.9040 	   23.0000 	    9.0000 	   53.5850 
    0.9384 	   30.9230 	   23.0000 	    9.0000 	   53.6230 
    1.0605 	   30.9415 	   23.0000 	    9.0000 	   53.6600 
    1.1521 	   30.9600 	   23.0000 	    9.0000 	   53.6970 
    1.1673 	   30.9775 	   23.0000 	    9.0000 	   53.7320 
    1.2284 	   30.9965 	   23.0000 	    9.0000 	   53.7700 
    0.8621 	   31.0175 	   23.0000 	    9.0000 	   53.8120 
    1.2436 	   31.0380 	   23.0000 	    9.0000 	   53.8530 
    1.1521 	   31.0600 	   23.0000 	    9.0000 	   53.8970 
    1.1368 	   31.0795 	   23.0000 	    9.0000 	   53.9360 
    1.0147 	   31.1010 	   23.0000 	    9.0000 	   53.9790 
    1.1521 	   31.1210 	   23.0000 	    9.0000 	   54.0190 
    1.1826 	   31.1420 	   23.0000 	    9.0000 	   54.0610 
    1.0910 	   31.1620 	   23.0000 	    9.0000 	   54.1010 
    1.1521 	   31.1825 	   23.0000 	    9.0000 	   54.1420 
    1.2436 	   31.2020 	   23.0000 	    9.0000 	   54.1810 
    1.2589 	   31.2230 	   23.0000 	    9.0000 	   54.2230 
    1.2284 	   31.2430 	   23.0000 	    9.0000 	   54.2630 
    1.2436 	   31.2640 	   23.0000 	    9.0000 	   54.3050 
    1.1521 	   31.2835 	   23.0000 	    9.0000 	   54.3440 
    1.1215 	   31.3035 	   23.0000 	    9.0000 	   54.3840 
    1.1673 	   31.3230 	   23.0000 	    9.0000 	   54.4230 
    1.1673 	   31.3435 	   23.0000 	    9.0000 	   54.4640 
    1.3504 	   31.3645 	   23.0000 	    9.0000 	   54.5060 
    1.1368 	   31.3850 	   23.0000 	    9.0000 	   54.5471 
    1.3352 	   31.4065 	   23.0000 	    9.0000 	   54.5900 
    1.2589 	   31.4265 	   23.0000 	    9.0000 	   54.6301 
    1.2589 	   31.4480 	   23.0000 	    9.0000 	   54.6731 
    1.0452 	   31.4680 	   23.0000 	    9.0000 	   54.7131 
    1.1826 	   31.4885 	   23.0000 	    9.0000 	   54.7541 
    1.2284 	   31.5095 	   23.0000 	    9.0000 	   54.7951 
    1.2741 	   31.5310 	   23.0000 	    9.0000 	   54.8391 
    1.2894 	   31.5510 	   23.0000 	    9.0000 	   54.8791 
    1.1978 	   31.5710 	   23.0000 	    9.0000 	   54.9181 
    1.1826 	   31.5905 	   23.0000 	    9.0000 	   54.9571 
    1.2436 	   31.6115 	   23.0000 	    9.0000 	   54.9991 
    0.9842 	   31.6310 	   23.0000 	    9.0000 	   55.0381 
    1.1978 	   31.6515 	   23.0000 	    9.0000 	   55.0791 
    1.0452 	   31.6720 	   23.0000 	    9.0000 	   55.1201 
    1.2436 	   31.6930 	   23.0000 	    9.0000 	   55.1621 
    1.0910 	   31.7130 	   23.0000 	    9.0000 	   55.2021 
    1.1063 	   31.7340 	   23.0000 	    9.0000 	   55.2441 
    1.1673 	   31.7540 	   23.0000 	    9.0000 	   55.2841 
    1.1215 	   31.7750 	   23.0000 	    9.0000 	   55.3261 
    1.1826 	   31.7955 	   23.0000 	    9.0000 	   55.3671 
    1.2589 	   31.8155 	   23.0000 	    9.0000 	   55.4071 
    1.1368 	   31.8365 	   23.0000 	    9.0000 	   55.4491 
    0.9079 	   31.8585 	   23.0000 	    9.0000 	   55.4931 
    1.1521 	   31.8790 	   23.0000 	    9.0000 	   55.5341 
    0.9689 	   31.8995 	   23.0000 	    9.0000 	   55.5751 
    1.1826 	   31.9200 	   23.0000 	    9.0000 	   55.6161 
    1.1673 	   31.9405 	   23.0000 	    9.0000 	   55.6571 
    1.1978 	   31.9600 	   23.0000 	    9.0000 	   55.6961 
    1.1978 	   31.9810 	   23.0000 	    9.0000 	   55.7381 
    1.1521 	   32.0015 	   23.0000 	    9.0000 	   55.7791 
    1.2589 	   32.0220 	   23.0000 	    9.0000 	   55.8201 
    1.2284 	   32.0445 	   23.0000 	    9.0000 	   55.8651 
    1.2284 	   32.0665 	   23.0000 	    9.0000 	   55.9091 
    1.1063 	   32.0865 	   23.0000 	    9.0000 	   55.9491 
    1.3809 	   32.1065 	   23.0000 	    9.0000 	   55.9891 
    1.3657 	   32.1275 	   23.0000 	    9.0000 	   56.0311 
    1.1368 	   32.1475 	   23.0000 	    9.0000 	   56.0711 
    1.1521 	   32.1680 	   23.0000 	    9.0000 	   56.1121 
    1.1978 	   32.1875 	   23.0000 	    9.0000 	   56.1511 
    1.2589 	   32.2085 	   23.0000 	    9.0000 	   56.1931 
    1.2589 	   32.2290 	   23.0000 	    9.0000 	   56.2341 
    1.2131 	   32.2495 	   23.0000 	    9.0000 	   56.2751 
    1.2589 	   32.2705 	   23.0000 	    9.0000 	   56.3172 
    1.1063 	   32.2910 	   23.0000 	    9.0000 	   56.3582 
    1.0605 	   32.3115 	   23.0000 	    9.0000 	   56.3992 
    1.2894 	   32.3315 	   23.0000 	    9.0000 	   56.4392 
    1.3199 	   32.3515 	   23.0000 	    9.0000 	   56.4792 
    1.1978 	   32.3715 	   23.0000 	    9.0000 	   56.5192 
    1.2894 	   32.3920 	   23.0000 	    9.0000 	   56.5602 
    1.1063 	   32.4115 	   23.0000 	    9.0000 	   56.5992 
    1.2284 	   32.4300 	   23.0000 	    9.0000 	   56.6362 
    1.1063 	   32.4485 	   23.0000 	    9.0000 	   56.6732 
    1.1978 	   32.4675 	   23.0000 	    9.0000 	   56.7112 
    1.1978 	   32.4865 	   23.0000 	    9.0000 	   56.7492 
    1.2284 	   32.5050 	   23.0000 	    9.0000 	   56.7862 
    1.2284 	   32.5235 	   23.0000 	    9.0000 	   56.8232 
    1.0910 	   32.5425 	   23.0000 	    9.0000 	   56.8612 
    1.1521 	   32.5635 	   23.0000 	    9.0000 	   56.9032 
    1.2131 	   32.5840 	   23.0000 	    9.0000 	   56.9442 
    1.1673 	   32.6040 	   23.0000 	    9.0000 	   56.9842 
    1.2436 	   32.6250 	   23.0000 	    9.0000 	   57.0262 
    1.2436 	   32.6455 	   23.0000 	    9.0000 	   57.0672 
    1.2131 	   32.6655 	   23.0000 	    9.0000 	   57.1072 
    1.2894 	   32.6865 	   23.0000 	    9.0000 	   57.1492 
    1.1978 	   32.7075 	   23.0000 	    9.0000 	   57.1912 
    1.1521 	   32.7275 	   23.0000 	    9.0000 	   57.2312 
    1.2131 	   32.7480 	   23.0000 	    9.0000 	   57.2722 
    1.0910 	   32.7695 	   23.0000 	    9.0000 	   57.3152 
    0.9384 	   32.7905 	   23.0000 	    9.0000 	   57.3572 
    1.1673 	   32.8110 	   23.0000 	    9.0000 	   57.3982 
    1.0300 	   32.8320 	   23.0000 	    9.0000 	   57.4402 
    1.0147 	   32.8530 	   23.0000 	    9.0000 	   57.4822 
    1.2284 	   32.8735 	   23.0000 	    9.0000 	   57.5232 
    1.0758 	   32.8955 	   23.0000 	    9.0000 	   57.5672 
    1.2589 	   32.9155 	   23.0000 	    9.0000 	   57.6072 
    1.1368 	   32.9360 	   23.0000 	    9.0000 	   57.6482 
    1.3352 	   32.9565 	   23.0000 	    9.0000 	   57.6892 
    1.1368 	   32.9760 	   23.0000 	    9.0000 	   57.7282 
    1.0147 	   32.9970 	   23.0000 	    9.0000 	   57.7702 
    1.1673 	   33.0165 	   23.0000 	    9.0000 	   57.8092 
    1.1978 	   33.0385 	   23.0000 	    9.0000 	   57.8532 
    1.2589 	   33.0605 	   23.0000 	    9.0000 	   57.8972 
    1.3199 	   33.0820 	   23.0000 	    9.0000 	   57.9402 
    1.2894 	   33.1035 	   23.0000 	    9.0000 	   57.9832 
    1.3352 	   33.1245 	   23.0000 	    9.0000 	   58.0252 
    1.1978 	   33.1460 	   23.0000 	    9.0000 	   58.0683 
    1.3199 	   33.1675 	   23.0000 	    9.0000 	   58.1113 
    1.3046 	   33.1885 	   23.0000 	    9.0000 	   58.1533 
    1.3046 	   33.2100 	   23.0000 	    9.0000 	   58.1963 
    1.1521 	   33.2315 	   23.0000 	    9.0000 	   58.2393 
    1.3046 	   33.2530 	   23.0000 	    9.0000 	   58.2823 
    1.2894 	   33.2730 	   23.0000 	    9.0000 	   58.3223 
    1.2436 	   33.2940 	   23.0000 	    9.0000 	   58.3643 
    1.2436 	   33.3155 	   23.0000 	    9.0000 	   58.4073 
    1.2131 	   33.3365 	   23.0000 	    9.0000 	   58.4493 
    1.1521 	   33.3570 	   23.0000 	    9.0000 	   58.4903 
    1.1521 	   33.3775 	   23.0000 	    9.0000 	   58.5313 
    1.3046 	   33.3990 	   23.0000 	    9.0000 	   58.5743 
    1.1978 	   33.4200 	   23.0000 	    9.0000 	   58.6163 
    1.1978 	   33.4405 	   23.0000 	    9.0000 	   58.6573 
    1.2284 	   33.4615 	   23.0000 	    9.0000 	   58.6993 
    1.1826 	   33.4825 	   23.0000 	    9.0000 	   58.7413 
    1.3199 	   33.5035 	   23.0000 	    9.0000 	   58.7833 
    1.1978 	   33.5250 	   23.0000 	    9.0000 	   58.8263 
    1.2284 	   33.5465 	   23.0000 	    9.0000 	   58.8693 
    1.1673 	   33.5670 	   23.0000 	    9.0000 	   58.9103 
    1.2589 	   33.5885 	   23.0000 	    9.0000 	   58.9533 
    1.2436 	   33.6090 	   23.0000 	    9.0000 	   58.9943 
    1.3352 	   33.6295 	   23.0000 	    9.0000 	   59.0353 
    1.2284 	   33.6490 	   23.0000 	    9.0000 	   59.0743 
    1.2436 	   33.6700 	   23.0000 	    9.0000 	   59.1163 
    1.2436 	   33.6900 	   23.0000 	    9.0000 	   59.1563 
    1.2284 	   33.7115 	   23.0000 	    9.0000 	   59.1993 
    1.3046 	   33.7335 	   23.0000 	    9.0000 	   59.2433 
    1.1978 	   33.7545 	   23.0000 	    9.0000 	   59.2853 
    1.0910 	   33.7750 	   23.0000 	    9.0000 	   59.3263 
    1.4725 	   33.7960 	   23.0000 	    9.0000 	   59.3683 
    1.3352 	   33.8165 	   23.0000 	    9.0000 	   59.4093 
    1.3046 	   33.8385 	   23.0000 	    9.0000 	   59.4533 
    1.2284 	   33.8600 	   23.0000 	    9.0000 	   59.4963 
    1.1826 	   33.8805 	   23.0000 	    9.0000 	   59.5373 
    1.2284 	   33.9010 	   23.0000 	    9.0000 	   59.5783 
    1.3046 	   33.9225 	   23.0000 	    9.0000 	   59.6213 
    1.3199 	   33.9430 	   23.0000 	    9.0000 	   59.6623 
    1.2894 	   33.9630 	   23.0000 	    9.0000 	   59.7023 
    1.3046 	   33.9830 	   23.0000 	    9.0000 	   59.7423 
    1.1978 	   34.0045 	   23.0000 	    9.0000 	   59.7853 
    1.2894 	   34.0250 	   23.0000 	    9.0000 	   59.8264 
    1.3504 	   34.0470 	   23.0000 	    9.0000 	   59.8704 
    1.2741 	   34.0675 	   23.0000 	    9.0000 	   59.9114 
    1.1521 	   34.0875 	   23.0000 	    9.0000 	   59.9514 
    1.2284 	   34.1085 	   23.0000 	    9.0000 	   59.9934 
    1.1673 	   34.1295 	   23.0000 	   10.0000 	    0.0354 
    1.0758 	   34.1505 	   23.0000 	   10.0000 	    0.0774 
    1.2284 	   34.1715 	   23.0000 	   10.0000 	    0.1194 
    0.9842 	   34.1930 	   23.0000 	   10.0000 	    0.1624 
    1.3046 	   34.2130 	   23.0000 	   10.0000 	    0.2024 
    1.3504 	   34.2330 	   23.0000 	   10.0000 	    0.2424 
    1.3046 	   34.2545 	   23.0000 	   10.0000 	    0.2854 
    0.9689 	   34.2755 	   23.0000 	   10.0000 	    0.3274 
    1.3504 	   34.2960 	   23.0000 	   10.0000 	    0.3684 
    1.2741 	   34.3180 	   23.0000 	   10.0000 	    0.4124 
    1.3962 	   34.3390 	   23.0000 	   10.0000 	    0.4544 
    1.3199 	   34.3610 	   23.0000 	   10.0000 	    0.4984 
    1.2894 	   34.3815 	   23.0000 	   10.0000 	    0.5394 
    0.9995 	   34.4020 	   23.0000 	   10.0000 	    0.5804 
    1.2436 	   34.4220 	   23.0000 	   10.0000 	    0.6204 
    1.2436 	   34.4430 	   23.0000 	   10.0000 	    0.6624 
    1.1521 	   34.4645 	   23.0000 	   10.0000 	    0.7054 
    1.2894 	   34.4860 	   23.0000 	   10.0000 	    0.7484 
    1.3046 	   34.5065 	   23.0000 	   10.0000 	    0.7894 
    1.2894 	   34.5270 	   23.0000 	   10.0000 	    0.8304 
    1.2894 	   34.5475 	   23.0000 	   10.0000 	    0.8714 
    1.2894 	   34.5690 	   23.0000 	   10.0000 	    0.9144 
    1.3046 	   34.5900 	   23.0000 	   10.0000 	    0.9564 
    1.1978 	   34.6110 	   23.0000 	   10.0000 	    0.9984 
    1.3657 	   34.6320 	   23.0000 	   10.0000 	    1.0404 
    1.3657 	   34.6525 	   23.0000 	   10.0000 	    1.0814 
    1.3199 	   34.6740 	   23.0000 	   10.0000 	    1.1244 
    1.1978 	   34.6945 	   23.0000 	   10.0000 	    1.1654 
    1.3809 	   34.7140 	   23.0000 	   10.0000 	    1.2044 
    1.4115 	   34.7345 	   23.0000 	   10.0000 	    1.2454 
    1.2589 	   34.7545 	   23.0000 	   10.0000 	    1.2854 
    1.1978 	   34.7755 	   23.0000 	   10.0000 	    1.3274 
    1.4725 	   34.7965 	   23.0000 	   10.0000 	    1.3684 
    1.1978 	   34.8175 	   23.0000 	   10.0000 	    1.4114 
    1.3046 	   34.8390 	   23.0000 	   10.0000 	    1.4544 
    1.2894 	   34.8590 	   23.0000 	   10.0000 	    1.4944 
    1.3809 	   34.8795 	   23.0000 	   10.0000 	    1.5354 
    1.2741 	   34.9000 	   23.0000 	   10.0000 	    1.5765 
    1.2589 	   34.9210 	   23.0000 	   10.0000 	    1.6185 
    1.3657 	   34.9425 	   23.0000 	   10.0000 	    1.6615 
    1.2741 	   34.9635 	   23.0000 	   10.0000 	    1.7025 
    1.3809 	   34.9835 	   23.0000 	   10.0000 	    1.7425 
    1.3504 	   35.0040 	   23.0000 	   10.0000 	    1.7845 
    1.2741 	   35.0245 	   23.0000 	   10.0000 	    1.8255 
    1.2436 	   35.0480 	   23.0000 	   10.0000 	    1.8725 
    1.4267 	   35.0695 	   23.0000 	   10.0000 	    1.9155 
    1.2589 	   35.0905 	   23.0000 	   10.0000 	    1.9575 
    1.2894 	   35.1115 	   23.0000 	   10.0000 	    1.9995 
    1.1826 	   35.1325 	   23.0000 	   10.0000 	    2.0415 
    1.4420 	   35.1540 	   23.0000 	   10.0000 	    2.0845 
    1.3657 	   35.1755 	   23.0000 	   10.0000 	    2.1275 
    1.0910 	   35.1955 	   23.0000 	   10.0000 	    2.1675 
    1.2284 	   35.2155 	   23.0000 	   10.0000 	    2.2075 
    1.3504 	   35.2380 	   23.0000 	   10.0000 	    2.2525 
    1.3962 	   35.2585 	   23.0000 	   10.0000 	    2.2935 
    1.3504 	   35.2775 	   23.0000 	   10.0000 	    2.3315 
    1.2436 	   35.2970 	   23.0000 	   10.0000 	    2.3705 
    1.3352 	   35.3155 	   23.0000 	   10.0000 	    2.4075 
    1.4115 	   35.3345 	   23.0000 	   10.0000 	    2.4455 
    1.4115 	   35.3535 	   23.0000 	   10.0000 	    2.4835 
    1.1368 	   35.3725 	   23.0000 	   10.0000 	    2.5215 
    1.2589 	   35.3915 	   23.0000 	   10.0000 	    2.5595 
    1.2284 	   35.4100 	   23.0000 	   10.0000 	    2.5965 
    1.3657 	   35.4285 	   23.0000 	   10.0000 	    2.6335 
    1.3046 	   35.4475 	   23.0000 	   10.0000 	    2.6715 
    1.4267 	   35.4660 	   23.0000 	   10.0000 	    2.7085 
    1.3199 	   35.4860 	   23.0000 	   10.0000 	    2.7485 
    1.3809 	   35.5060 	   23.0000 	   10.0000 	    2.7885 
    1.3046 	   35.5270 	   23.0000 	   10.0000 	    2.8305 
    1.1673 	   35.5470 	   23.0000 	   10.0000 	    2.8705 
    1.3504 	   35.5680 	   23.0000 	   10.0000 	    2.9125 
    1.2741 	   35.5885 	   23.0000 	   10.0000 	    2.9535 
    1.0300 	   35.6080 	   23.0000 	   10.0000 	    2.9925 
    1.2131 	   35.6270 	   23.0000 	   10.0000 	    3.0305 
    1.2436 	   35.6460 	   23.0000 	   10.0000 	    3.0685 
    1.1368 	   35.6645 	   23.0000 	   10.0000 	    3.1055 
    1.2284 	   35.6840 	   23.0000 	   10.0000 	    3.1445 
    1.2284 	   35.7030 	   23.0000 	   10.0000 	    3.1825 
    1.4115 	   35.7220 	   23.0000 	   10.0000 	    3.2205 
    1.3962 	   35.7410 	   23.0000 	   10.0000 	    3.2585 
    1.3352 	   35.7605 	   23.0000 	   10.0000 	    3.2975 
    1.5030 	   35.7795 	   23.0000 	   10.0000 	    3.3356 
    1.2589 	   35.7980 	   23.0000 	   10.0000 	    3.3726 
    1.2894 	   35.8180 	   23.0000 	   10.0000 	    3.4126 
    1.0758 	   35.8370 	   23.0000 	   10.0000 	    3.4506 
    1.4115 	   35.8560 	   23.0000 	   10.0000 	    3.4886 
    1.3657 	   35.8745 	   23.0000 	   10.0000 	    3.5256 
    1.3809 	   35.8925 	   23.0000 	   10.0000 	    3.5616 
    1.3352 	   35.9120 	   23.0000 	   10.0000 	    3.6006 
    1.2741 	   35.9305 	   23.0000 	   10.0000 	    3.6376 
    1.3504 	   35.9490 	   23.0000 	   10.0000 	    3.6746 
    1.3962 	   35.9680 	   23.0000 	   10.0000 	    3.7116 
    1.3046 	   35.9870 	   23.0000 	   10.0000 	    3.7506 
    1.3809 	   36.0050 	   23.0000 	   10.0000 	    3.7866 
    1.2894 	   36.0240 	   23.0000 	   10.0000 	    3.8246 
    1.3504 	   36.0440 	   23.0000 	   10.0000 	    3.8646 
    1.2131 	   36.0625 	   23.0000 	   10.0000 	    3.9016 
    1.5183 	   36.0830 	   23.0000 	   10.0000 	    3.9426 
    1.3046 	   36.1045 	   23.0000 	   10.0000 	    3.9856 
    1.2741 	   36.1260 	   23.0000 	   10.0000 	    4.0286 
    1.2284 	   36.1465 	   23.0000 	   10.0000 	    4.0696 
    1.3352 	   36.1660 	   23.0000 	   10.0000 	    4.1086 
    1.1673 	   36.1870 	   23.0000 	   10.0000 	    4.1506 
    1.3962 	   36.2070 	   23.0000 	   10.0000 	    4.1906 
    1.3199 	   36.2270 	   23.0000 	   10.0000 	    4.2306 
    1.2284 	   36.2470 	   23.0000 	   10.0000 	    4.2706 
    1.1826 	   36.2695 	   23.0000 	   10.0000 	    4.3156 
    1.4267 	   36.2910 	   23.0000 	   10.0000 	    4.3586 
    1.3352 	   36.3110 	   23.0000 	   10.0000 	    4.3986 
    1.0452 	   36.3325 	   23.0000 	   10.0000 	    4.4416 
    1.1063 	   36.3540 	   23.0000 	   10.0000 	    4.4846 
    1.3657 	   36.3750 	   23.0000 	   10.0000 	    4.5266 
    1.1978 	   36.3965 	   23.0000 	   10.0000 	    4.5696 
    1.3809 	   36.4185 	   23.0000 	   10.0000 	    4.6136 
    1.3046 	   36.4400 	   23.0000 	   10.0000 	    4.6566 
    1.2284 	   36.4605 	   23.0000 	   10.0000 	    4.6976 
    1.3352 	   36.4825 	   23.0000 	   10.0000 	    4.7416 
    1.2589 	   36.5030 	   23.0000 	   10.0000 	    4.7826 
    1.2894 	   36.5240 	   23.0000 	   10.0000 	    4.8246 
    1.4267 	   36.5450 	   23.0000 	   10.0000 	    4.8666 
    1.3046 	   36.5655 	   23.0000 	   10.0000 	    4.9076 
    1.3504 	   36.5865 	   23.0000 	   10.0000 	    4.9496 
    1.1673 	   36.6080 	   23.0000 	   10.0000 	    4.9926 
    1.3352 	   36.6295 	   23.0000 	   10.0000 	    5.0356 
    1.2436 	   36.6500 	   23.0000 	   10.0000 	    5.0767 
    1.3352 	   36.6715 	   23.0000 	   10.0000 	    5.1197 
    1.4725 	   36.6925 	   23.0000 	   10.0000 	    5.1617 
    1.3504 	   36.7135 	   23.0000 	   10.0000 	    5.2037 
    1.3352 	   36.7345 	   23.0000 	   10.0000 	    5.2457 
    1.4267 	   36.7540 	   23.0000 	   10.0000 	    5.2847 
    1.3352 	   36.7745 	   23.0000 	   10.0000 	    5.3257 
    1.2894 	   36.7955 	   23.0000 	   10.0000 	    5.3677 
    1.3962 	   36.8165 	   23.0000 	   10.0000 	    5.4097 
    1.3352 	   36.8380 	   23.0000 	   10.0000 	    5.4527 
    1.3809 	   36.8590 	   23.0000 	   10.0000 	    5.4947 
    1.3352 	   36.8800 	   23.0000 	   10.0000 	    5.5367 
    1.2894 	   36.9010 	   23.0000 	   10.0000 	    5.5787 
    1.2894 	   36.9225 	   23.0000 	   10.0000 	    5.6217 
    1.4267 	   36.9425 	   23.0000 	   10.0000 	    5.6617 
    1.3046 	   36.9625 	   23.0000 	   10.0000 	    5.7007 
    1.3809 	   36.9835 	   23.0000 	   10.0000 	    5.7437 
    1.3199 	   37.0050 	   23.0000 	   10.0000 	    5.7867 
    1.3657 	   37.0250 	   23.0000 	   10.0000 	    5.8267 
    1.1063 	   37.0475 	   23.0000 	   10.0000 	    5.8717 
    1.3962 	   37.0675 	   23.0000 	   10.0000 	    5.9117 
    1.4267 	   37.0880 	   23.0000 	   10.0000 	    5.9527 
    1.1063 	   37.1095 	   23.0000 	   10.0000 	    5.9957 
    1.2436 	   37.1310 	   23.0000 	   10.0000 	    6.0387 
    1.3352 	   37.1500 	   23.0000 	   10.0000 	    6.0767 
    1.1063 	   37.1715 	   23.0000 	   10.0000 	    6.1197 
    1.3657 	   37.1925 	   23.0000 	   10.0000 	    6.1617 
    1.3046 	   37.2130 	   23.0000 	   10.0000 	    6.2027 
    1.4572 	   37.2335 	   23.0000 	   10.0000 	    6.2437 
    1.4420 	   37.2550 	   23.0000 	   10.0000 	    6.2867 
    1.4115 	   37.2760 	   23.0000 	   10.0000 	    6.3287 
    1.2436 	   37.2965 	   23.0000 	   10.0000 	    6.3697 
    1.3046 	   37.3175 	   23.0000 	   10.0000 	    6.4117 
    1.2284 	   37.3380 	   23.0000 	   10.0000 	    6.4527 
    1.3962 	   37.3590 	   23.0000 	   10.0000 	    6.4947 
    1.3962 	   37.3805 	   23.0000 	   10.0000 	    6.5377 
    1.4115 	   37.4005 	   23.0000 	   10.0000 	    6.5777 
    1.3046 	   37.4195 	   23.0000 	   10.0000 	    6.6157 
    1.2284 	   37.4385 	   23.0000 	   10.0000 	    6.6537 
    1.3657 	   37.4575 	   23.0000 	   10.0000 	    6.6917 
    1.4420 	   37.4770 	   23.0000 	   10.0000 	    6.7307 
    1.3504 	   37.4960 	   23.0000 	   10.0000 	    6.7687 
    1.2589 	   37.5150 	   23.0000 	   10.0000 	    6.8068 
    1.4420 	   37.5335 	   23.0000 	   10.0000 	    6.8438 
    1.3504 	   37.5535 	   23.0000 	   10.0000 	    6.8838 
    1.3504 	   37.5735 	   23.0000 	   10.0000 	    6.9238 
    1.3504 	   37.5925 	   23.0000 	   10.0000 	    6.9618 
    1.4115 	   37.6120 	   23.0000 	   10.0000 	    7.0008 
    1.4878 	   37.6305 	   23.0000 	   10.0000 	    7.0378 
    1.4878 	   37.6510 	   23.0000 	   10.0000 	    7.0788 
    1.3504 	   37.6720 	   23.0000 	   10.0000 	    7.1208 
    1.3504 	   37.6930 	   23.0000 	   10.0000 	    7.1628 
    1.4420 	   37.7130 	   23.0000 	   10.0000 	    7.2028 
    1.4115 	   37.7345 	   23.0000 	   10.0000 	    7.2458 
    1.3809 	   37.7555 	   23.0000 	   10.0000 	    7.2878 
    1.1978 	   37.7770 	   23.0000 	   10.0000 	    7.3308 
    1.4267 	   37.7975 	   23.0000 	   10.0000 	    7.3718 
    1.3504 	   37.8170 	   23.0000 	   10.0000 	    7.4108 
    1.4115 	   37.8365 	   23.0000 	   10.0000 	    7.4498 
    1.3199 	   37.8555 	   23.0000 	   10.0000 	    7.4878 
    1.4115 	   37.8765 	   23.0000 	   10.0000 	    7.5298 
    1.4115 	   37.8970 	   23.0000 	   10.0000 	    7.5708 
    1.4572 	   37.9160 	   23.0000 	   10.0000 	    7.6088 
    1.5640 	   37.9375 	   23.0000 	   10.0000 	    7.6518 
    1.4267 	   37.9580 	   23.0000 	   10.0000 	    7.6928 
    1.4267 	   37.9785 	   23.0000 	   10.0000 	    7.7338 
    1.4572 	   37.9990 	   23.0000 	   10.0000 	    7.7748 
    1.4572 	   38.0180 	   23.0000 	   10.0000 	    7.8128 
    1.3046 	   38.0370 	   23.0000 	   10.0000 	    7.8508 
    1.4267 	   38.0575 	   23.0000 	   10.0000 	    7.8918 
    1.4267 	   38.0765 	   23.0000 	   10.0000 	    7.9298 
    1.3352 	   38.0975 	   23.0000 	   10.0000 	    7.9718 
    1.4878 	   38.1185 	   23.0000 	   10.0000 	    8.0138 
    1.4115 	   38.1385 	   23.0000 	   10.0000 	    8.0538 
    1.3199 	   38.1595 	   23.0000 	   10.0000 	    8.0958 
    1.4420 	   38.1805 	   23.0000 	   10.0000 	    8.1378 
    1.5030 	   38.2025 	   23.0000 	   10.0000 	    8.1818 
    1.1215 	   38.2235 	   23.0000 	   10.0000 	    8.2238 
    1.4115 	   38.2445 	   23.0000 	   10.0000 	    8.2658 
    1.3199 	   38.2660 	   23.0000 	   10.0000 	    8.3088 
    1.4267 	   38.2855 	   23.0000 	   10.0000 	    8.3478 
    1.3962 	   38.3060 	   23.0000 	   10.0000 	    8.3888 
    1.5183 	   38.3275 	   23.0000 	   10.0000 	    8.4318 
    1.4725 	   38.3485 	   23.0000 	   10.0000 	    8.4738 
    1.1521 	   38.3690 	   23.0000 	   10.0000 	    8.5148 
    1.2894 	   38.3900 	   23.0000 	   10.0000 	    8.5569 
    1.3657 	   38.4105 	   23.0000 	   10.0000 	    8.5979 
    1.3657 	   38.4310 	   23.0000 	   10.0000 	    8.6389 
    1.3809 	   38.4520 	   23.0000 	   10.0000 	    8.6809 
    1.3962 	   38.4735 	   23.0000 	   10.0000 	    8.7239 
    1.4115 	   38.4955 	   23.0000 	   10.0000 	    8.7679 
    1.2741 	   38.5175 	   23.0000 	   10.0000 	    8.8119 
    1.4115 	   38.5390 	   23.0000 	   10.0000 	    8.8549 
    1.4572 	   38.5600 	   23.0000 	   10.0000 	    8.8969 
    1.6709 	   38.5815 	   23.0000 	   10.0000 	    8.9399 
    1.4267 	   38.6030 	   23.0000 	   10.0000 	    8.9829 
    1.1978 	   38.6250 	   23.0000 	   10.0000 	    9.0269 
    1.4115 	   38.6460 	   23.0000 	   10.0000 	    9.0689 
    1.3199 	   38.6670 	   23.0000 	   10.0000 	    9.1109 
    1.4420 	   38.6885 	   23.0000 	   10.0000 	    9.1539 
    1.4267 	   38.7095 	   23.0000 	   10.0000 	    9.1959 
    1.2741 	   38.7300 	   23.0000 	   10.0000 	    9.2369 
    1.4725 	   38.7490 	   23.0000 	   10.0000 	    9.2749 
    1.3809 	   38.7685 	   23.0000 	   10.0000 	    9.3139 
    1.3352 	   38.7875 	   23.0000 	   10.0000 	    9.3519 
    1.3504 	   38.8070 	   23.0000 	   10.0000 	    9.3909 
    1.5335 	   38.8255 	   23.0000 	   10.0000 	    9.4279 
    1.3962 	   38.8450 	   23.0000 	   10.0000 	    9.4669 
    1.0758 	   38.8640 	   23.0000 	   10.0000 	    9.5049 
    1.3199 	   38.8835 	   23.0000 	   10.0000 	    9.5439 
    1.4878 	   38.9020 	   23.0000 	   10.0000 	    9.5809 
    1.4725 	   38.9220 	   23.0000 	   10.0000 	    9.6209 
    1.2894 	   38.9430 	   23.0000 	   10.0000 	    9.6629 
    1.3504 	   38.9645 	   23.0000 	   10.0000 	    9.7059 
    1.3504 	   38.9850 	   23.0000 	   10.0000 	    9.7469 
    1.4878 	   39.0065 	   23.0000 	   10.0000 	    9.7899 
    1.4878 	   39.0270 	   23.0000 	   10.0000 	    9.8309 
    1.4420 	   39.0495 	   23.0000 	   10.0000 	    9.8759 
    1.5183 	   39.0720 	   23.0000 	   10.0000 	    9.9209 
    1.2894 	   39.0925 	   23.0000 	   10.0000 	    9.9619 
    1.5488 	   39.1135 	   23.0000 	   10.0000 	   10.0039 
    1.3809 	   39.1350 	   23.0000 	   10.0000 	   10.0469 
    1.3962 	   39.1555 	   23.0000 	   10.0000 	   10.0879 
    1.3809 	   39.1775 	   23.0000 	   10.0000 	   10.1319 
    1.3962 	   39.1975 	   23.0000 	   10.0000 	   10.1719 
    1.4420 	   39.2190 	   23.0000 	   10.0000 	   10.2149 
    1.4725 	   39.2390 	   23.0000 	   10.0000 	   10.2549 
    1.4267 	   39.2595 	   23.0000 	   10.0000 	   10.2959 
    1.3352 	   39.2805 	   23.0000 	   10.0000 	   10.3380 
    1.4115 	   39.3010 	   23.0000 	   10.0000 	   10.3790 
    1.4115 	   39.3225 	   23.0000 	   10.0000 	   10.4220 
    1.6556 	   39.3440 	   23.0000 	   10.0000 	   10.4650 
    1.5335 	   39.3645 	   23.0000 	   10.0000 	   10.5060 
    1.2284 	   39.3855 	   23.0000 	   10.0000 	   10.5480 
    1.4878 	   39.4065 	   23.0000 	   10.0000 	   10.5900 
    1.4115 	   39.4280 	   23.0000 	   10.0000 	   10.6330 
    1.4267 	   39.4490 	   23.0000 	   10.0000 	   10.6750 
    1.5335 	   39.4705 	   23.0000 	   10.0000 	   10.7180 
    1.6251 	   39.4910 	   23.0000 	   10.0000 	   10.7590 
    1.4725 	   39.5125 	   23.0000 	   10.0000 	   10.8020 
    1.4115 	   39.5335 	   23.0000 	   10.0000 	   10.8440 
    1.5335 	   39.5550 	   23.0000 	   10.0000 	   10.8870 
    1.3504 	   39.5755 	   23.0000 	   10.0000 	   10.9280 
    1.4725 	   39.5970 	   23.0000 	   10.0000 	   10.9710 
    1.5030 	   39.6180 	   23.0000 	   10.0000 	   11.0130 
    1.4420 	   39.6395 	   23.0000 	   10.0000 	   11.0560 
    1.6556 	   39.6610 	   23.0000 	   10.0000 	   11.0990 
    1.2894 	   39.6810 	   23.0000 	   10.0000 	   11.1390 
    1.3962 	   39.7010 	   23.0000 	   10.0000 	   11.1790 
    1.5335 	   39.7235 	   23.0000 	   10.0000 	   11.2240 
    1.4878 	   39.7435 	   23.0000 	   10.0000 	   11.2640 
    1.5183 	   39.7650 	   23.0000 	   10.0000 	   11.3070 
    1.5183 	   39.7860 	   23.0000 	   10.0000 	   11.3490 
    1.4572 	   39.8070 	   23.0000 	   10.0000 	   11.3910 
    1.5030 	   39.8270 	   23.0000 	   10.0000 	   11.4310 
    1.5793 	   39.8470 	   23.0000 	   10.0000 	   11.4710 
    1.4420 	   39.8685 	   23.0000 	   10.0000 	   11.5140 
    1.4878 	   39.8895 	   23.0000 	   10.0000 	   11.5560 
    1.4420 	   39.9115 	   23.0000 	   10.0000 	   11.6000 
    1.4725 	   39.9325 	   23.0000 	   10.0000 	   11.6420 
    1.4878 	   39.9535 	   23.0000 	   10.0000 	   11.6840 
    1.7472 	   39.9735 	   23.0000 	   10.0000 	   11.7240 
    1.5030 	   39.9945 	   23.0000 	   10.0000 	   11.7660 
    1.4725 	   40.0180 	   23.0000 	   10.0000 	   11.8130 
