Thayer School of Engineering        Instron 4442 Mechanical Testing System
7/9/2018 3:05:53 AM

  Force (N)	Extension (mm)	Not Used	Not Used	Not Used	     Hour	    Minute	    Second
    0.4654 	    2.0620 	    3.0000 	    6.0000 	   13.2518 
    0.2976 	    2.1220 	    3.0000 	    6.0000 	   13.2818 
    0.2823 	    2.2620 	    3.0000 	    6.0000 	   13.3518 
    0.2365 	    2.3880 	    3.0000 	    6.0000 	   13.4148 
    0.3738 	    2.4480 	    3.0000 	    6.0000 	   13.4448 
    0.4044 	    2.5580 	    3.0000 	    6.0000 	   13.4998 
    0.3891 	    2.6540 	    3.0000 	    6.0000 	   13.5478 
    0.3586 	    2.7140 	    3.0000 	    6.0000 	   13.5778 
    0.0839 	    2.7680 	    3.0000 	    6.0000 	   13.6048 
    0.4501 	    2.8720 	    3.0000 	    6.0000 	   13.6568 
    0.3738 	    2.9720 	    3.0000 	    6.0000 	   13.7068 
    0.4349 	    3.0740 	    3.0000 	    6.0000 	   13.7578 
    0.2823 	    3.1780 	    3.0000 	    6.0000 	   13.8098 
    0.4501 	    3.2400 	    3.0000 	    6.0000 	   13.8408 
    0.4349 	    3.3520 	    3.0000 	    6.0000 	   13.8968 
    0.2213 	    3.4600 	    3.0000 	    6.0000 	   13.9508 
    0.5722 	    3.5660 	    3.0000 	    6.0000 	   14.0038 
    0.3586 	    3.6680 	    3.0000 	    6.0000 	   14.0548 
    0.3433 	    3.7700 	    3.0000 	    6.0000 	   14.1058 
    0.0229 	    3.8700 	    3.0000 	    6.0000 	   14.1558 
    0.5264 	    3.9340 	    3.0000 	    6.0000 	   14.1878 
    0.3586 	    4.0460 	    3.0000 	    6.0000 	   14.2438 
    0.4044 	    4.1540 	    3.0000 	    6.0000 	   14.2978 
    0.4349 	    4.2600 	    3.0000 	    6.0000 	   14.3508 
    0.3891 	    4.3640 	    3.0000 	    6.0000 	   14.4028 
    0.4196 	    4.4220 	    3.0000 	    6.0000 	   14.4318 
    0.2823 	    4.4820 	    3.0000 	    6.0000 	   14.4618 
    0.3738 	    4.5380 	    3.0000 	    6.0000 	   14.4898 
    0.4196 	    4.6440 	    3.0000 	    6.0000 	   14.5428 
    0.4501 	    4.7480 	    3.0000 	    6.0000 	   14.5948 
    0.3891 	    4.8060 	    3.0000 	    6.0000 	   14.6238 
    0.3738 	    4.9200 	    3.0000 	    6.0000 	   14.6808 
    0.4044 	    5.0260 	    3.0000 	    6.0000 	   14.7338 
    0.3433 	    5.0980 	    3.0000 	    6.0000 	   14.7698 
    0.4196 	    5.1560 	    3.0000 	    6.0000 	   14.7988 
    0.3891 	    5.2720 	    3.0000 	    6.0000 	   14.8568 
    0.4807 	    5.3760 	    3.0000 	    6.0000 	   14.9088 
    0.5722 	    5.4440 	    3.0000 	    6.0000 	   14.9429 
    0.3891 	    5.5640 	    3.0000 	    6.0000 	   15.0029 
    0.4959 	    5.6680 	    3.0000 	    6.0000 	   15.0549 
    0.3281 	    5.7720 	    3.0000 	    6.0000 	   15.1069 
    0.3281 	    5.8800 	    3.0000 	    6.0000 	   15.1609 
    0.1755 	    5.9940 	    3.0000 	    6.0000 	   15.2179 
    0.4349 	    6.0520 	    3.0000 	    6.0000 	   15.2469 
    0.2213 	    6.1580 	    3.0000 	    6.0000 	   15.2999 
    0.5417 	    6.2620 	    3.0000 	    6.0000 	   15.3519 
    0.2670 	    6.3740 	    3.0000 	    6.0000 	   15.4079 
    0.3738 	    6.4940 	    3.0000 	    6.0000 	   15.4679 
    0.3128 	    6.5540 	    3.0000 	    6.0000 	   15.4979 
    0.4349 	    6.6080 	    3.0000 	    6.0000 	   15.5249 
    0.3738 	    6.6600 	    3.0000 	    6.0000 	   15.5509 
    0.4349 	    6.7220 	    3.0000 	    6.0000 	   15.5819 
    0.2976 	    6.7900 	    3.0000 	    6.0000 	   15.6159 
    0.3433 	    6.8580 	    3.0000 	    6.0000 	   15.6499 
    0.3433 	    6.9300 	    3.0000 	    6.0000 	   15.6859 
    0.3586 	    6.9920 	    3.0000 	    6.0000 	   15.7169 
    0.4654 	    7.0560 	    3.0000 	    6.0000 	   15.7489 
    0.5875 	    7.1220 	    3.0000 	    6.0000 	   15.7819 
    0.4044 	    7.1860 	    3.0000 	    6.0000 	   15.8139 
    0.2976 	    7.2500 	    3.0000 	    6.0000 	   15.8459 
    0.4044 	    7.3140 	    3.0000 	    6.0000 	   15.8779 
    0.2823 	    7.3800 	    3.0000 	    6.0000 	   15.9109 
    0.3281 	    7.4440 	    3.0000 	    6.0000 	   15.9429 
    0.2365 	    7.5060 	    3.0000 	    6.0000 	   15.9739 
    0.4807 	    7.5680 	    3.0000 	    6.0000 	   16.0049 
    0.4349 	    7.6320 	    3.0000 	    6.0000 	   16.0369 
    0.3891 	    7.6960 	    3.0000 	    6.0000 	   16.0689 
    0.3891 	    7.7600 	    3.0000 	    6.0000 	   16.1009 
    0.3891 	    7.8260 	    3.0000 	    6.0000 	   16.1339 
    0.4501 	    7.8920 	    3.0000 	    6.0000 	   16.1669 
    0.3586 	    7.9600 	    3.0000 	    6.0000 	   16.2009 
    0.5112 	    8.0280 	    3.0000 	    6.0000 	   16.2349 
    0.4044 	    8.0920 	    3.0000 	    6.0000 	   16.2669 
    0.4196 	    8.1640 	    3.0000 	    6.0000 	   16.3029 
    0.3433 	    8.2240 	    3.0000 	    6.0000 	   16.3329 
    0.3281 	    8.2880 	    3.0000 	    6.0000 	   16.3649 
    0.4654 	    8.3500 	    3.0000 	    6.0000 	   16.3959 
    0.5112 	    8.4100 	    3.0000 	    6.0000 	   16.4259 
    0.5112 	    8.4680 	    3.0000 	    6.0000 	   16.4549 
    0.1297 	    8.5240 	    3.0000 	    6.0000 	   16.4829 
    0.3586 	    8.5780 	    3.0000 	    6.0000 	   16.5099 
    0.3586 	    8.6840 	    3.0000 	    6.0000 	   16.5629 
    0.4959 	    8.7320 	    3.0000 	    6.0000 	   16.5869 
    0.5722 	    8.7880 	    3.0000 	    6.0000 	   16.6149 
    0.4196 	    8.8460 	    3.0000 	    6.0000 	   16.6439 
    0.4501 	    8.8980 	    3.0000 	    6.0000 	   16.6700 
    0.3738 	    8.9540 	    3.0000 	    6.0000 	   16.6980 
    0.3738 	    9.0020 	    3.0000 	    6.0000 	   16.7220 
    0.4654 	    9.0560 	    3.0000 	    6.0000 	   16.7490 
    0.3586 	    9.1120 	    3.0000 	    6.0000 	   16.7770 
    0.3891 	    9.1620 	    3.0000 	    6.0000 	   16.8020 
    0.4044 	    9.2300 	    3.0000 	    6.0000 	   16.8360 
    0.5722 	    9.2880 	    3.0000 	    6.0000 	   16.8650 
    0.5722 	    9.3520 	    3.0000 	    6.0000 	   16.8970 
    0.3891 	    9.4080 	    3.0000 	    6.0000 	   16.9250 
    0.4349 	    9.4680 	    3.0000 	    6.0000 	   16.9550 
    0.5722 	    9.5280 	    3.0000 	    6.0000 	   16.9850 
    0.4501 	    9.5860 	    3.0000 	    6.0000 	   17.0140 
    0.3738 	    9.6500 	    3.0000 	    6.0000 	   17.0460 
    0.4959 	    9.7060 	    3.0000 	    6.0000 	   17.0740 
    0.2976 	    9.7700 	    3.0000 	    6.0000 	   17.1060 
    0.3891 	    9.8340 	    3.0000 	    6.0000 	   17.1380 
    0.3738 	    9.8920 	    3.0000 	    6.0000 	   17.1670 
    0.1144 	    9.9660 	    3.0000 	    6.0000 	   17.2040 
    0.3586 	   10.0240 	    3.0000 	    6.0000 	   17.2330 
    0.4959 	   10.0920 	    3.0000 	    6.0000 	   17.2670 
    0.4501 	   10.1600 	    3.0000 	    6.0000 	   17.3010 
    0.4959 	   10.2200 	    3.0000 	    6.0000 	   17.3310 
    0.4501 	   10.2820 	    3.0000 	    6.0000 	   17.3620 
    0.2823 	   10.3400 	    3.0000 	    6.0000 	   17.3910 
    0.3891 	   10.3900 	    3.0000 	    6.0000 	   17.4160 
    0.3738 	   10.4520 	    3.0000 	    6.0000 	   17.4470 
    0.4959 	   10.5040 	    3.0000 	    6.0000 	   17.4730 
    0.4654 	   10.5600 	    3.0000 	    6.0000 	   17.5010 
    0.3738 	   10.6120 	    3.0000 	    6.0000 	   17.5270 
    0.4196 	   10.6620 	    3.0000 	    6.0000 	   17.5520 
    0.4807 	   10.7260 	    3.0000 	    6.0000 	   17.5840 
    0.3128 	   10.7880 	    3.0000 	    6.0000 	   17.6150 
    0.3891 	   10.8460 	    3.0000 	    6.0000 	   17.6440 
    0.4654 	   10.9080 	    3.0000 	    6.0000 	   17.6750 
    0.4044 	   10.9740 	    3.0000 	    6.0000 	   17.7080 
    0.3433 	   11.0320 	    3.0000 	    6.0000 	   17.7370 
    0.2976 	   11.0920 	    3.0000 	    6.0000 	   17.7670 
    0.1755 	   11.1560 	    3.0000 	    6.0000 	   17.7990 
    0.5417 	   11.2220 	    3.0000 	    6.0000 	   17.8310 
    0.3891 	   11.2800 	    3.0000 	    6.0000 	   17.8600 
    0.4959 	   11.3420 	    3.0000 	    6.0000 	   17.8910 
    0.3586 	   11.4020 	    3.0000 	    6.0000 	   17.9210 
    0.5264 	   11.4620 	    3.0000 	    6.0000 	   17.9510 
    0.1602 	   11.5300 	    3.0000 	    6.0000 	   17.9850 
    0.4196 	   11.5940 	    3.0000 	    6.0000 	   18.0170 
    0.4654 	   11.6560 	    3.0000 	    6.0000 	   18.0480 
    0.5264 	   11.7180 	    3.0000 	    6.0000 	   18.0790 
    0.4501 	   11.7840 	    3.0000 	    6.0000 	   18.1120 
    0.3738 	   11.8400 	    3.0000 	    6.0000 	   18.1400 
    0.5722 	   11.9020 	    3.0000 	    6.0000 	   18.1710 
    0.4349 	   11.9680 	    3.0000 	    6.0000 	   18.2040 
    0.4349 	   12.0260 	    3.0000 	    6.0000 	   18.2330 
    0.3738 	   12.0940 	    3.0000 	    6.0000 	   18.2670 
    0.5417 	   12.1620 	    3.0000 	    6.0000 	   18.3010 
    0.5875 	   12.2240 	    3.0000 	    6.0000 	   18.3320 
    0.5264 	   12.2800 	    3.0000 	    6.0000 	   18.3600 
    0.4044 	   12.3420 	    3.0000 	    6.0000 	   18.3910 
    0.4807 	   12.3960 	    3.0000 	    6.0000 	   18.4180 
    0.4959 	   12.4500 	    3.0000 	    6.0000 	   18.4451 
    0.4349 	   12.5020 	    3.0000 	    6.0000 	   18.4711 
    0.4959 	   12.5580 	    3.0000 	    6.0000 	   18.4991 
    0.6332 	   12.6100 	    3.0000 	    6.0000 	   18.5251 
    0.5417 	   12.6600 	    3.0000 	    6.0000 	   18.5501 
    0.3891 	   12.7760 	    3.0000 	    6.0000 	   18.6081 
    0.3586 	   12.8300 	    3.0000 	    6.0000 	   18.6351 
    0.2213 	   12.8940 	    3.0000 	    6.0000 	   18.6671 
    0.5264 	   12.9680 	    3.0000 	    6.0000 	   18.7041 
    0.4959 	   13.0320 	    3.0000 	    6.0000 	   18.7361 
    0.6180 	   13.0960 	    3.0000 	    6.0000 	   18.7681 
    0.3586 	   13.1640 	    3.0000 	    6.0000 	   18.8021 
    0.4807 	   13.2260 	    3.0000 	    6.0000 	   18.8331 
    0.3433 	   13.2920 	    3.0000 	    6.0000 	   18.8661 
    0.5875 	   13.3600 	    3.0000 	    6.0000 	   18.9001 
    0.4349 	   13.4300 	    3.0000 	    6.0000 	   18.9351 
    0.4349 	   13.4920 	    3.0000 	    6.0000 	   18.9661 
    0.5264 	   13.5660 	    3.0000 	    6.0000 	   19.0031 
    0.5570 	   13.6280 	    3.0000 	    6.0000 	   19.0341 
    0.3738 	   13.6900 	    3.0000 	    6.0000 	   19.0651 
    0.2060 	   13.7580 	    3.0000 	    6.0000 	   19.0991 
    0.5112 	   13.8220 	    3.0000 	    6.0000 	   19.1311 
    0.1297 	   13.8860 	    3.0000 	    6.0000 	   19.1631 
    0.5112 	   13.9560 	    3.0000 	    6.0000 	   19.1981 
    0.5112 	   14.0200 	    3.0000 	    6.0000 	   19.2301 
    0.3433 	   14.0800 	    3.0000 	    6.0000 	   19.2601 
    0.3586 	   14.1480 	    3.0000 	    6.0000 	   19.2941 
    0.6790 	   14.2080 	    3.0000 	    6.0000 	   19.3241 
    0.4349 	   14.2600 	    3.0000 	    6.0000 	   19.3501 
    0.5264 	   14.3260 	    3.0000 	    6.0000 	   19.3831 
    0.2670 	   14.3840 	    3.0000 	    6.0000 	   19.4121 
    0.3586 	   14.4380 	    3.0000 	    6.0000 	   19.4391 
    0.4959 	   14.4940 	    3.0000 	    6.0000 	   19.4671 
    0.4349 	   14.5540 	    3.0000 	    6.0000 	   19.4971 
    0.4044 	   14.6080 	    3.0000 	    6.0000 	   19.5241 
    0.4349 	   14.6640 	    3.0000 	    6.0000 	   19.5521 
    0.4349 	   14.7180 	    3.0000 	    6.0000 	   19.5791 
    0.3128 	   14.7800 	    3.0000 	    6.0000 	   19.6101 
    0.5112 	   14.8380 	    3.0000 	    6.0000 	   19.6391 
    0.3738 	   14.9040 	    3.0000 	    6.0000 	   19.6721 
    0.5112 	   14.9760 	    3.0000 	    6.0000 	   19.7081 
    0.4959 	   15.0360 	    3.0000 	    6.0000 	   19.7381 
    0.5417 	   15.0960 	    3.0000 	    6.0000 	   19.7681 
    0.3738 	   15.1720 	    3.0000 	    6.0000 	   19.8061 
    0.5112 	   15.2300 	    3.0000 	    6.0000 	   19.8351 
    0.4959 	   15.2940 	    3.0000 	    6.0000 	   19.8671 
    0.5264 	   15.3600 	    3.0000 	    6.0000 	   19.9001 
    0.3586 	   15.4400 	    3.0000 	    6.0000 	   19.9401 
    0.6638 	   15.5020 	    3.0000 	    6.0000 	   19.9711 
    0.4349 	   15.5720 	    3.0000 	    6.0000 	   20.0061 
    0.5264 	   15.6340 	    3.0000 	    6.0000 	   20.0371 
    0.3738 	   15.6940 	    3.0000 	    6.0000 	   20.0671 
    0.4501 	   15.7620 	    3.0000 	    6.0000 	   20.1011 
    0.3891 	   15.8300 	    3.0000 	    6.0000 	   20.1351 
    0.4501 	   15.8920 	    3.0000 	    6.0000 	   20.1661 
    0.5570 	   15.9600 	    3.0000 	    6.0000 	   20.2002 
    0.3586 	   16.0240 	    3.0000 	    6.0000 	   20.2322 
    0.4807 	   16.0880 	    3.0000 	    6.0000 	   20.2642 
    0.4807 	   16.1540 	    3.0000 	    6.0000 	   20.2972 
    0.3738 	   16.2160 	    3.0000 	    6.0000 	   20.3282 
    0.4044 	   16.2720 	    3.0000 	    6.0000 	   20.3562 
    0.5875 	   16.3360 	    3.0000 	    6.0000 	   20.3882 
    0.5570 	   16.3960 	    3.0000 	    6.0000 	   20.4182 
    0.4959 	   16.4520 	    3.0000 	    6.0000 	   20.4462 
    0.5264 	   16.5060 	    3.0000 	    6.0000 	   20.4732 
    0.5722 	   16.5700 	    3.0000 	    6.0000 	   20.5052 
    0.3433 	   16.6240 	    3.0000 	    6.0000 	   20.5322 
    0.7248 	   16.6780 	    3.0000 	    6.0000 	   20.5592 
    0.2823 	   16.7360 	    3.0000 	    6.0000 	   20.5882 
    0.3738 	   16.7920 	    3.0000 	    6.0000 	   20.6162 
    0.4959 	   16.8460 	    3.0000 	    6.0000 	   20.6432 
    0.5875 	   16.9020 	    3.0000 	    6.0000 	   20.6712 
    0.4349 	   16.9720 	    3.0000 	    6.0000 	   20.7062 
    0.5264 	   17.0240 	    3.0000 	    6.0000 	   20.7322 
    0.0992 	   17.0800 	    3.0000 	    6.0000 	   20.7602 
    0.4501 	   17.1400 	    3.0000 	    6.0000 	   20.7902 
    0.5417 	   17.1960 	    3.0000 	    6.0000 	   20.8182 
    0.5112 	   17.2500 	    3.0000 	    6.0000 	   20.8452 
    0.4349 	   17.3080 	    3.0000 	    6.0000 	   20.8742 
    0.4959 	   17.3660 	    3.0000 	    6.0000 	   20.9032 
    0.5570 	   17.4380 	    3.0000 	    6.0000 	   20.9392 
    0.4654 	   17.4960 	    3.0000 	    6.0000 	   20.9682 
    0.4654 	   17.5500 	    3.0000 	    6.0000 	   20.9952 
    0.3281 	   17.6040 	    3.0000 	    6.0000 	   21.0222 
    0.5570 	   17.6680 	    3.0000 	    6.0000 	   21.0542 
    0.4959 	   17.7320 	    3.0000 	    6.0000 	   21.0862 
    0.5570 	   17.7840 	    3.0000 	    6.0000 	   21.1122 
    0.5264 	   17.8380 	    3.0000 	    6.0000 	   21.1392 
    0.6332 	   17.9000 	    3.0000 	    6.0000 	   21.1702 
    0.7401 	   17.9540 	    3.0000 	    6.0000 	   21.1972 
    0.5875 	   18.0080 	    3.0000 	    6.0000 	   21.2242 
    0.5112 	   18.0660 	    3.0000 	    6.0000 	   21.2532 
    0.4807 	   18.1340 	    3.0000 	    6.0000 	   21.2872 
    0.4501 	   18.2000 	    3.0000 	    6.0000 	   21.3202 
    0.3433 	   18.2620 	    3.0000 	    6.0000 	   21.3512 
    0.4044 	   18.3200 	    3.0000 	    6.0000 	   21.3802 
    0.4959 	   18.3840 	    3.0000 	    6.0000 	   21.4122 
    0.5112 	   18.4400 	    3.0000 	    6.0000 	   21.4402 
    0.3738 	   18.4940 	    3.0000 	    6.0000 	   21.4672 
    0.3433 	   18.5500 	    3.0000 	    6.0000 	   21.4952 
    0.5264 	   18.6020 	    3.0000 	    6.0000 	   21.5212 
    0.4501 	   18.6680 	    3.0000 	    6.0000 	   21.5542 
    0.3891 	   18.7280 	    3.0000 	    6.0000 	   21.5842 
    0.5417 	   18.7820 	    3.0000 	    6.0000 	   21.6112 
    0.5570 	   18.8340 	    3.0000 	    6.0000 	   21.6372 
    0.3891 	   18.8980 	    3.0000 	    6.0000 	   21.6692 
    0.0992 	   18.9560 	    3.0000 	    6.0000 	   21.6982 
    0.4349 	   19.0140 	    3.0000 	    6.0000 	   21.7272 
    0.4807 	   19.0720 	    3.0000 	    6.0000 	   21.7562 
    0.4501 	   19.1400 	    3.0000 	    6.0000 	   21.7902 
    0.4959 	   19.1980 	    3.0000 	    6.0000 	   21.8192 
    0.4349 	   19.2620 	    3.0000 	    6.0000 	   21.8512 
    0.5417 	   19.3260 	    3.0000 	    6.0000 	   21.8832 
    0.4044 	   19.3960 	    3.0000 	    6.0000 	   21.9183 
    0.4044 	   19.4480 	    3.0000 	    6.0000 	   21.9443 
    0.5417 	   19.5020 	    3.0000 	    6.0000 	   21.9713 
    0.4349 	   19.5580 	    3.0000 	    6.0000 	   21.9993 
    0.2670 	   19.6200 	    3.0000 	    6.0000 	   22.0303 
    0.4196 	   19.6740 	    3.0000 	    6.0000 	   22.0573 
    0.4654 	   19.7280 	    3.0000 	    6.0000 	   22.0843 
    0.4044 	   19.7840 	    3.0000 	    6.0000 	   22.1123 
    0.5264 	   19.8380 	    3.0000 	    6.0000 	   22.1393 
    0.4959 	   19.8940 	    3.0000 	    6.0000 	   22.1673 
    0.5722 	   19.9500 	    3.0000 	    6.0000 	   22.1953 
    0.4196 	   20.0080 	    3.0000 	    6.0000 	   22.2243 
    0.5264 	   20.0640 	    3.0000 	    6.0000 	   22.2523 
    0.5570 	   20.1240 	    3.0000 	    6.0000 	   22.2823 
    0.6790 	   20.1800 	    3.0000 	    6.0000 	   22.3103 
    0.6027 	   20.2340 	    3.0000 	    6.0000 	   22.3373 
    0.3891 	   20.2880 	    3.0000 	    6.0000 	   22.3643 
    0.5570 	   20.3420 	    3.0000 	    6.0000 	   22.3913 
    0.4196 	   20.3980 	    3.0000 	    6.0000 	   22.4193 
    0.5417 	   20.4560 	    3.0000 	    6.0000 	   22.4483 
    0.3586 	   20.5100 	    3.0000 	    6.0000 	   22.4753 
    0.5112 	   20.5640 	    3.0000 	    6.0000 	   22.5023 
    0.4654 	   20.6280 	    3.0000 	    6.0000 	   22.5343 
    0.5875 	   20.6840 	    3.0000 	    6.0000 	   22.5623 
    0.5570 	   20.7340 	    3.0000 	    6.0000 	   22.5873 
    0.5417 	   20.7860 	    3.0000 	    6.0000 	   22.6133 
    0.5417 	   20.8420 	    3.0000 	    6.0000 	   22.6413 
    0.4654 	   20.9060 	    3.0000 	    6.0000 	   22.6733 
    0.4044 	   20.9740 	    3.0000 	    6.0000 	   22.7073 
    0.3586 	   21.0380 	    3.0000 	    6.0000 	   22.7393 
    0.4501 	   21.0980 	    3.0000 	    6.0000 	   22.7693 
    0.7095 	   21.1640 	    3.0000 	    6.0000 	   22.8023 
    0.6485 	   21.2300 	    3.0000 	    6.0000 	   22.8353 
    0.5264 	   21.2980 	    3.0000 	    6.0000 	   22.8693 
    0.4349 	   21.3620 	    3.0000 	    6.0000 	   22.9013 
    0.5722 	   21.4260 	    3.0000 	    6.0000 	   22.9333 
    0.4501 	   21.4920 	    3.0000 	    6.0000 	   22.9663 
    0.4349 	   21.5600 	    3.0000 	    6.0000 	   23.0003 
    0.4501 	   21.6300 	    3.0000 	    6.0000 	   23.0353 
    0.5875 	   21.6980 	    3.0000 	    6.0000 	   23.0693 
    0.5264 	   21.7600 	    3.0000 	    6.0000 	   23.1003 
    0.4959 	   21.8240 	    3.0000 	    6.0000 	   23.1323 
    0.3738 	   21.8980 	    3.0000 	    6.0000 	   23.1693 
    0.4196 	   21.9620 	    3.0000 	    6.0000 	   23.2013 
    0.5417 	   22.0280 	    3.0000 	    6.0000 	   23.2343 
    0.5417 	   22.0920 	    3.0000 	    6.0000 	   23.2663 
    0.6790 	   22.1660 	    3.0000 	    6.0000 	   23.3033 
    0.3128 	   22.2280 	    3.0000 	    6.0000 	   23.3343 
    0.5417 	   22.2980 	    3.0000 	    6.0000 	   23.3693 
    0.4044 	   22.3520 	    3.0000 	    6.0000 	   23.3963 
    0.5570 	   22.4080 	    3.0000 	    6.0000 	   23.4243 
    0.5112 	   22.4680 	    3.0000 	    6.0000 	   23.4543 
    0.4959 	   22.5260 	    3.0000 	    6.0000 	   23.4833 
    0.5112 	   22.5820 	    3.0000 	    6.0000 	   23.5113 
    0.4349 	   22.6460 	    3.0000 	    6.0000 	   23.5433 
    0.5112 	   22.7020 	    3.0000 	    6.0000 	   23.5713 
    0.5112 	   22.7560 	    3.0000 	    6.0000 	   23.5983 
    0.5722 	   22.8140 	    3.0000 	    6.0000 	   23.6273 
    0.5112 	   22.8740 	    3.0000 	    6.0000 	   23.6573 
    0.4196 	   22.9360 	    3.0000 	    6.0000 	   23.6884 
    0.5570 	   22.9980 	    3.0000 	    6.0000 	   23.7194 
    0.5112 	   23.0660 	    3.0000 	    6.0000 	   23.7534 
    0.5417 	   23.1300 	    3.0000 	    6.0000 	   23.7854 
    0.4044 	   23.2040 	    3.0000 	    6.0000 	   23.8224 
    0.2518 	   23.2700 	    3.0000 	    6.0000 	   23.8554 
    0.3586 	   23.3340 	    3.0000 	    6.0000 	   23.8874 
    0.5722 	   23.3980 	    3.0000 	    6.0000 	   23.9194 
    0.5570 	   23.4600 	    3.0000 	    6.0000 	   23.9504 
    0.6180 	   23.5280 	    3.0000 	    6.0000 	   23.9844 
    0.8011 	   23.5940 	    3.0000 	    6.0000 	   24.0174 
    0.4959 	   23.6700 	    3.0000 	    6.0000 	   24.0554 
    0.4501 	   23.7380 	    3.0000 	    6.0000 	   24.0894 
    0.4349 	   23.8060 	    3.0000 	    6.0000 	   24.1234 
    0.4044 	   23.8700 	    3.0000 	    6.0000 	   24.1554 
    0.6485 	   23.9360 	    3.0000 	    6.0000 	   24.1884 
    0.4807 	   24.0020 	    3.0000 	    6.0000 	   24.2214 
    0.5570 	   24.0660 	    3.0000 	    6.0000 	   24.2534 
    0.5722 	   24.1360 	    3.0000 	    6.0000 	   24.2884 
    0.5875 	   24.2040 	    3.0000 	    6.0000 	   24.3224 
    0.5264 	   24.2680 	    3.0000 	    6.0000 	   24.3544 
    0.4501 	   24.3260 	    3.0000 	    6.0000 	   24.3834 
    0.4654 	   24.3860 	    3.0000 	    6.0000 	   24.4134 
    0.4654 	   24.4420 	    3.0000 	    6.0000 	   24.4414 
    0.4349 	   24.5020 	    3.0000 	    6.0000 	   24.4714 
    0.4654 	   24.5600 	    3.0000 	    6.0000 	   24.5004 
    0.5875 	   24.6260 	    3.0000 	    6.0000 	   24.5334 
    0.2976 	   24.6820 	    3.0000 	    6.0000 	   24.5614 
    0.5264 	   24.7340 	    3.0000 	    6.0000 	   24.5874 
    0.5264 	   24.7920 	    3.0000 	    6.0000 	   24.6164 
    0.4349 	   24.8520 	    3.0000 	    6.0000 	   24.6464 
    0.4654 	   24.9140 	    3.0000 	    6.0000 	   24.6774 
    0.4501 	   24.9780 	    3.0000 	    6.0000 	   24.7094 
    0.4044 	   25.0420 	    3.0000 	    6.0000 	   24.7414 
    0.4654 	   25.1040 	    3.0000 	    6.0000 	   24.7724 
    0.3433 	   25.1740 	    3.0000 	    6.0000 	   24.8074 
    0.4349 	   25.2360 	    3.0000 	    6.0000 	   24.8384 
    0.4807 	   25.3040 	    3.0000 	    6.0000 	   24.8724 
    0.5264 	   25.3660 	    3.0000 	    6.0000 	   24.9034 
    0.5264 	   25.4300 	    3.0000 	    6.0000 	   24.9354 
    0.3738 	   25.4960 	    3.0000 	    6.0000 	   24.9684 
    0.5722 	   25.5600 	    3.0000 	    6.0000 	   25.0004 
    0.5875 	   25.6280 	    3.0000 	    6.0000 	   25.0344 
    0.4349 	   25.6960 	    3.0000 	    6.0000 	   25.0684 
    0.4196 	   25.7620 	    3.0000 	    6.0000 	   25.1014 
    0.3281 	   25.8280 	    3.0000 	    6.0000 	   25.1344 
    0.6638 	   25.8940 	    3.0000 	    6.0000 	   25.1674 
    0.5264 	   25.9620 	    3.0000 	    6.0000 	   25.2014 
    0.4807 	   26.0300 	    3.0000 	    6.0000 	   25.2354 
    0.5417 	   26.0980 	    3.0000 	    6.0000 	   25.2694 
    0.4501 	   26.1680 	    3.0000 	    6.0000 	   25.3044 
    0.5112 	   26.2300 	    3.0000 	    6.0000 	   25.3354 
    0.4654 	   26.2960 	    3.0000 	    6.0000 	   25.3684 
    0.6180 	   26.3560 	    3.0000 	    6.0000 	   25.3984 
    0.6485 	   26.4180 	    3.0000 	    6.0000 	   25.4295 
    0.5875 	   26.4740 	    3.0000 	    6.0000 	   25.4575 
    0.6180 	   26.5320 	    3.0000 	    6.0000 	   25.4865 
    0.5417 	   26.5880 	    3.0000 	    6.0000 	   25.5145 
    0.5264 	   26.6520 	    3.0000 	    6.0000 	   25.5465 
    0.6943 	   26.7080 	    3.0000 	    6.0000 	   25.5745 
    0.4959 	   26.7600 	    3.0000 	    6.0000 	   25.6005 
    0.5112 	   26.8160 	    3.0000 	    6.0000 	   25.6285 
    0.6027 	   26.8740 	    3.0000 	    6.0000 	   25.6575 
    0.4959 	   26.9380 	    3.0000 	    6.0000 	   25.6895 
    0.5264 	   27.0060 	    3.0000 	    6.0000 	   25.7235 
    0.2670 	   27.0720 	    3.0000 	    6.0000 	   25.7565 
    0.6943 	   27.1460 	    3.0000 	    6.0000 	   25.7935 
    0.4807 	   27.2100 	    3.0000 	    6.0000 	   25.8255 
    0.2670 	   27.2720 	    3.0000 	    6.0000 	   25.8565 
    0.3738 	   27.3380 	    3.0000 	    6.0000 	   25.8895 
    0.4349 	   27.4040 	    3.0000 	    6.0000 	   25.9225 
    0.5722 	   27.4660 	    3.0000 	    6.0000 	   25.9535 
    0.5264 	   27.5320 	    3.0000 	    6.0000 	   25.9865 
    0.5722 	   27.6000 	    3.0000 	    6.0000 	   26.0205 
    0.6943 	   27.6700 	    3.0000 	    6.0000 	   26.0555 
    0.5417 	   27.7320 	    3.0000 	    6.0000 	   26.0865 
    0.4501 	   27.7960 	    3.0000 	    6.0000 	   26.1185 
    0.5875 	   27.8620 	    3.0000 	    6.0000 	   26.1515 
    0.5875 	   27.9280 	    3.0000 	    6.0000 	   26.1835 
    0.5570 	   27.9960 	    3.0000 	    6.0000 	   26.2185 
    0.4501 	   28.0640 	    3.0000 	    6.0000 	   26.2525 
    0.6332 	   28.1280 	    3.0000 	    6.0000 	   26.2845 
    0.5112 	   28.2020 	    3.0000 	    6.0000 	   26.3215 
    0.6180 	   28.2700 	    3.0000 	    6.0000 	   26.3555 
    0.1602 	   28.3360 	    3.0000 	    6.0000 	   26.3885 
    0.4654 	   28.3920 	    3.0000 	    6.0000 	   26.4165 
    0.4044 	   28.4520 	    3.0000 	    6.0000 	   26.4465 
    0.4196 	   28.5140 	    3.0000 	    6.0000 	   26.4775 
    0.5570 	   28.5680 	    3.0000 	    6.0000 	   26.5045 
    0.3586 	   28.6320 	    3.0000 	    6.0000 	   26.5365 
    0.4654 	   28.6900 	    3.0000 	    6.0000 	   26.5645 
    0.4959 	   28.7440 	    3.0000 	    6.0000 	   26.5925 
    0.4654 	   28.7960 	    3.0000 	    6.0000 	   26.6185 
    0.7553 	   28.8600 	    3.0000 	    6.0000 	   26.6505 
    0.5417 	   28.9260 	    3.0000 	    6.0000 	   26.6835 
    0.6332 	   28.9900 	    3.0000 	    6.0000 	   26.7155 
    0.5722 	   29.0560 	    3.0000 	    6.0000 	   26.7485 
    0.4349 	   29.1200 	    3.0000 	    6.0000 	   26.7805 
    0.2518 	   29.1880 	    3.0000 	    6.0000 	   26.8145 
    0.6332 	   29.2540 	    3.0000 	    6.0000 	   26.8475 
    0.6790 	   29.3160 	    3.0000 	    6.0000 	   26.8785 
    0.6485 	   29.3800 	    3.0000 	    6.0000 	   26.9105 
    0.5875 	   29.4460 	    3.0000 	    6.0000 	   26.9435 
    0.6027 	   29.5060 	    3.0000 	    6.0000 	   26.9735 
    0.4349 	   29.5660 	    3.0000 	    6.0000 	   27.0035 
    0.2670 	   29.6400 	    3.0000 	    6.0000 	   27.0405 
    0.5722 	   29.7060 	    3.0000 	    6.0000 	   27.0735 
    0.4654 	   29.7700 	    3.0000 	    6.0000 	   27.1055 
    0.5570 	   29.8340 	    3.0000 	    6.0000 	   27.1375 
    0.5875 	   29.8980 	    3.0000 	    6.0000 	   27.1695 
    0.6943 	   29.9600 	    3.0000 	    6.0000 	   27.2006 
    0.3128 	   30.0280 	    3.0000 	    6.0000 	   27.2346 
    0.7095 	   30.0960 	    3.0000 	    6.0000 	   27.2686 
    0.6180 	   30.1680 	    3.0000 	    6.0000 	   27.3046 
    0.3738 	   30.2340 	    3.0000 	    6.0000 	   27.3376 
    0.4196 	   30.2920 	    3.0000 	    6.0000 	   27.3666 
    0.5570 	   30.3520 	    3.0000 	    6.0000 	   27.3966 
    0.6180 	   30.4080 	    3.0000 	    6.0000 	   27.4246 
    0.5112 	   30.4700 	    3.0000 	    6.0000 	   27.4556 
    0.5264 	   30.5280 	    3.0000 	    6.0000 	   27.4836 
    0.4807 	   30.5860 	    3.0000 	    6.0000 	   27.5136 
    0.5112 	   30.6520 	    3.0000 	    6.0000 	   27.5466 
    0.5722 	   30.7120 	    3.0000 	    6.0000 	   27.5766 
    0.4501 	   30.7700 	    3.0000 	    6.0000 	   27.6056 
    0.6332 	   30.8280 	    3.0000 	    6.0000 	   27.6346 
    0.6027 	   30.8960 	    3.0000 	    6.0000 	   27.6686 
    0.7248 	   30.9640 	    3.0000 	    6.0000 	   27.7026 
    0.4807 	   31.0320 	    3.0000 	    6.0000 	   27.7366 
    0.6180 	   31.0960 	    3.0000 	    6.0000 	   27.7686 
    0.4196 	   31.1680 	    3.0000 	    6.0000 	   27.8046 
    0.6332 	   31.2320 	    3.0000 	    6.0000 	   27.8366 
    0.4959 	   31.3000 	    3.0000 	    6.0000 	   27.8706 
    0.3433 	   31.3600 	    3.0000 	    6.0000 	   27.9006 
    0.4959 	   31.4280 	    3.0000 	    6.0000 	   27.9346 
    0.5875 	   31.4940 	    3.0000 	    6.0000 	   27.9676 
    0.5722 	   31.5640 	    3.0000 	    6.0000 	   28.0026 
    0.5417 	   31.6300 	    3.0000 	    6.0000 	   28.0356 
    0.7248 	   31.7020 	    3.0000 	    6.0000 	   28.0716 
    0.4501 	   31.7680 	    3.0000 	    6.0000 	   28.1046 
    0.6485 	   31.8340 	    3.0000 	    6.0000 	   28.1376 
    0.5264 	   31.8980 	    3.0000 	    6.0000 	   28.1696 
    0.3586 	   31.9620 	    3.0000 	    6.0000 	   28.2016 
    0.4654 	   32.0280 	    3.0000 	    6.0000 	   28.2346 
    0.5570 	   32.0940 	    3.0000 	    6.0000 	   28.2676 
    0.6332 	   32.1740 	    3.0000 	    6.0000 	   28.3076 
    0.5417 	   32.2400 	    3.0000 	    6.0000 	   28.3406 
    0.5112 	   32.3040 	    3.0000 	    6.0000 	   28.3726 
    0.5112 	   32.3640 	    3.0000 	    6.0000 	   28.4026 
    0.4501 	   32.4260 	    3.0000 	    6.0000 	   28.4336 
    0.4501 	   32.4860 	    3.0000 	    6.0000 	   28.4636 
    0.5417 	   32.5480 	    3.0000 	    6.0000 	   28.4946 
    0.2365 	   32.6060 	    3.0000 	    6.0000 	   28.5236 
    0.6180 	   32.6740 	    3.0000 	    6.0000 	   28.5576 
    0.4501 	   32.7300 	    3.0000 	    6.0000 	   28.5856 
    0.4807 	   32.7880 	    3.0000 	    6.0000 	   28.6146 
    0.2823 	   32.8480 	    3.0000 	    6.0000 	   28.6446 
    0.4959 	   32.9080 	    3.0000 	    6.0000 	   28.6746 
    0.4349 	   32.9740 	    3.0000 	    6.0000 	   28.7076 
    0.6332 	   33.0400 	    3.0000 	    6.0000 	   28.7406 
    0.7095 	   33.1040 	    3.0000 	    6.0000 	   28.7726 
    0.5417 	   33.1760 	    3.0000 	    6.0000 	   28.8086 
    0.6027 	   33.2440 	    3.0000 	    6.0000 	   28.8426 
    0.5417 	   33.3120 	    3.0000 	    6.0000 	   28.8766 
    0.4959 	   33.3800 	    3.0000 	    6.0000 	   28.9107 
    0.8011 	   33.4420 	    3.0000 	    6.0000 	   28.9417 
    0.5875 	   33.5100 	    3.0000 	    6.0000 	   28.9757 
    0.4807 	   33.5740 	    3.0000 	    6.0000 	   29.0077 
    0.5570 	   33.6480 	    3.0000 	    6.0000 	   29.0447 
    0.5264 	   33.7120 	    3.0000 	    6.0000 	   29.0767 
    0.6027 	   33.7800 	    3.0000 	    6.0000 	   29.1107 
    0.6790 	   33.8480 	    3.0000 	    6.0000 	   29.1447 
    0.5112 	   33.9120 	    3.0000 	    6.0000 	   29.1767 
    0.5722 	   33.9800 	    3.0000 	    6.0000 	   29.2107 
    0.5417 	   34.0500 	    3.0000 	    6.0000 	   29.2457 
    0.4044 	   34.1120 	    3.0000 	    6.0000 	   29.2767 
    0.6638 	   34.1880 	    3.0000 	    6.0000 	   29.3147 
    0.6638 	   34.2580 	    3.0000 	    6.0000 	   29.3497 
    0.6638 	   34.3200 	    3.0000 	    6.0000 	   29.3807 
    0.6180 	   34.3820 	    3.0000 	    6.0000 	   29.4117 
    0.3281 	   34.4420 	    3.0000 	    6.0000 	   29.4417 
    0.5417 	   34.5060 	    3.0000 	    6.0000 	   29.4737 
    0.6943 	   34.5660 	    3.0000 	    6.0000 	   29.5037 
    0.6027 	   34.6320 	    3.0000 	    6.0000 	   29.5367 
    0.5722 	   34.6920 	    3.0000 	    6.0000 	   29.5667 
    0.5570 	   34.7500 	    3.0000 	    6.0000 	   29.5957 
    0.4501 	   34.8060 	    3.0000 	    6.0000 	   29.6237 
    0.3586 	   34.8600 	    3.0000 	    6.0000 	   29.6507 
    0.5264 	   34.9220 	    3.0000 	    6.0000 	   29.6817 
    0.3891 	   34.9860 	    3.0000 	    6.0000 	   29.7137 
    0.3128 	   35.0500 	    3.0000 	    6.0000 	   29.7457 
    0.6180 	   35.1180 	    3.0000 	    6.0000 	   29.7797 
    0.5264 	   35.1900 	    3.0000 	    6.0000 	   29.8157 
    0.6943 	   35.2520 	    3.0000 	    6.0000 	   29.8467 
    0.7095 	   35.3160 	    3.0000 	    6.0000 	   29.8787 
    0.6332 	   35.3820 	    3.0000 	    6.0000 	   29.9117 
    0.5570 	   35.4500 	    3.0000 	    6.0000 	   29.9457 
    0.6332 	   35.5180 	    3.0000 	    6.0000 	   29.9797 
    0.5722 	   35.5820 	    3.0000 	    6.0000 	   30.0117 
    0.5264 	   35.6540 	    3.0000 	    6.0000 	   30.0477 
    0.3281 	   35.7160 	    3.0000 	    6.0000 	   30.0787 
    0.5722 	   35.7800 	    3.0000 	    6.0000 	   30.1107 
    0.4196 	   35.8480 	    3.0000 	    6.0000 	   30.1447 
    0.6027 	   35.9120 	    3.0000 	    6.0000 	   30.1767 
    0.6943 	   35.9780 	    3.0000 	    6.0000 	   30.2097 
    0.5722 	   36.0460 	    3.0000 	    6.0000 	   30.2437 
    0.4959 	   36.1140 	    3.0000 	    6.0000 	   30.2777 
    0.5417 	   36.1880 	    3.0000 	    6.0000 	   30.3147 
    0.5417 	   36.2540 	    3.0000 	    6.0000 	   30.3477 
    0.6027 	   36.3160 	    3.0000 	    6.0000 	   30.3787 
    0.6638 	   36.3800 	    3.0000 	    6.0000 	   30.4107 
    0.5417 	   36.4400 	    3.0000 	    6.0000 	   30.4407 
    0.5722 	   36.5000 	    3.0000 	    6.0000 	   30.4707 
    0.5570 	   36.5600 	    3.0000 	    6.0000 	   30.5007 
    0.6180 	   36.6220 	    3.0000 	    6.0000 	   30.5317 
    0.3281 	   36.6820 	    3.0000 	    6.0000 	   30.5617 
    0.5570 	   36.7420 	    3.0000 	    6.0000 	   30.5917 
    0.5875 	   36.8020 	    3.0000 	    6.0000 	   30.6217 
    0.6332 	   36.8600 	    3.0000 	    6.0000 	   30.6507 
    0.4654 	   36.9180 	    3.0000 	    6.0000 	   30.6798 
    0.3128 	   36.9800 	    3.0000 	    6.0000 	   30.7108 
    0.6485 	   37.0480 	    3.0000 	    6.0000 	   30.7448 
    0.6180 	   37.1160 	    3.0000 	    6.0000 	   30.7788 
    0.7401 	   37.1840 	    3.0000 	    6.0000 	   30.8128 
    0.5722 	   37.2460 	    3.0000 	    6.0000 	   30.8438 
    0.4959 	   37.3040 	    3.0000 	    6.0000 	   30.8728 
    0.5570 	   37.3620 	    3.0000 	    6.0000 	   30.9018 
    0.6943 	   37.4200 	    3.0000 	    6.0000 	   30.9308 
    0.4349 	   37.4780 	    3.0000 	    6.0000 	   30.9598 
    0.4196 	   37.5420 	    3.0000 	    6.0000 	   30.9918 
    0.6180 	   37.6080 	    3.0000 	    6.0000 	   31.0248 
    0.7858 	   37.6640 	    3.0000 	    6.0000 	   31.0528 
    0.6485 	   37.7240 	    3.0000 	    6.0000 	   31.0828 
    0.7248 	   37.7920 	    3.0000 	    6.0000 	   31.1168 
    0.5570 	   37.8580 	    3.0000 	    6.0000 	   31.1498 
    0.5417 	   37.9280 	    3.0000 	    6.0000 	   31.1848 
    0.4349 	   37.9920 	    3.0000 	    6.0000 	   31.2168 
    0.6027 	   38.0600 	    3.0000 	    6.0000 	   31.2508 
    0.7401 	   38.1280 	    3.0000 	    6.0000 	   31.2848 
    0.7095 	   38.2020 	    3.0000 	    6.0000 	   31.3218 
    0.6943 	   38.2700 	    3.0000 	    6.0000 	   31.3558 
    0.5570 	   38.3400 	    3.0000 	    6.0000 	   31.3908 
    0.5875 	   38.4020 	    3.0000 	    6.0000 	   31.4218 
    0.5112 	   38.4660 	    3.0000 	    6.0000 	   31.4538 
    0.4501 	   38.5280 	    3.0000 	    6.0000 	   31.4848 
    0.5417 	   38.5900 	    3.0000 	    6.0000 	   31.5158 
    0.4807 	   38.6500 	    3.0000 	    6.0000 	   31.5458 
    0.5417 	   38.7100 	    3.0000 	    6.0000 	   31.5758 
    0.5264 	   38.7680 	    3.0000 	    6.0000 	   31.6048 
    0.5722 	   38.8260 	    3.0000 	    6.0000 	   31.6338 
    0.5722 	   38.8800 	    3.0000 	    6.0000 	   31.6608 
    0.5264 	   38.9400 	    3.0000 	    6.0000 	   31.6908 
    0.6638 	   39.0000 	    3.0000 	    6.0000 	   31.7208 
    0.6943 	   39.0600 	    3.0000 	    6.0000 	   31.7508 
    0.7095 	   39.1200 	    3.0000 	    6.0000 	   31.7808 
    0.6638 	   39.1860 	    3.0000 	    6.0000 	   31.8138 
    0.3433 	   39.2540 	    3.0000 	    6.0000 	   31.8478 
    0.3281 	   39.3100 	    3.0000 	    6.0000 	   31.8758 
    0.6180 	   39.3700 	    3.0000 	    6.0000 	   31.9058 
    0.5875 	   39.4280 	    3.0000 	    6.0000 	   31.9348 
    0.5264 	   39.4900 	    3.0000 	    6.0000 	   31.9658 
    0.8316 	   39.5600 	    3.0000 	    6.0000 	   32.0008 
    0.4807 	   39.6280 	    3.0000 	    6.0000 	   32.0348 
    0.5112 	   39.6940 	    3.0000 	    6.0000 	   32.0678 
    0.5570 	   39.7600 	    3.0000 	    6.0000 	   32.1008 
    0.5417 	   39.8360 	    3.0000 	    6.0000 	   32.1388 
    0.6027 	   39.9040 	    3.0000 	    6.0000 	   32.1728 
    0.6638 	   39.9740 	    3.0000 	    6.0000 	   32.2078 
    0.5722 	   40.0440 	    3.0000 	    6.0000 	   32.2428 
    0.6943 	   40.1100 	    3.0000 	    6.0000 	   32.2758 
    0.6332 	   40.1820 	    3.0000 	    6.0000 	   32.3118 
    0.7553 	   40.2520 	    3.0000 	    6.0000 	   32.3468 
    0.6485 	   40.3160 	    3.0000 	    6.0000 	   32.3788 
    0.7095 	   40.3820 	    3.0000 	    6.0000 	   32.4118 
    0.6332 	   40.4440 	    3.0000 	    6.0000 	   32.4429 
    0.6638 	   40.5080 	    3.0000 	    6.0000 	   32.4749 
    0.6180 	   40.5660 	    3.0000 	    6.0000 	   32.5039 
    0.5875 	   40.6280 	    3.0000 	    6.0000 	   32.5349 
    0.5722 	   40.6880 	    3.0000 	    6.0000 	   32.5649 
    0.5264 	   40.7480 	    3.0000 	    6.0000 	   32.5949 
    0.6180 	   40.8100 	    3.0000 	    6.0000 	   32.6259 
    0.7401 	   40.8660 	    3.0000 	    6.0000 	   32.6539 
    0.6027 	   40.9220 	    3.0000 	    6.0000 	   32.6819 
    0.7248 	   40.9860 	    3.0000 	    6.0000 	   32.7139 
    0.8011 	   41.0520 	    3.0000 	    6.0000 	   32.7469 
    0.6485 	   41.1200 	    3.0000 	    6.0000 	   32.7809 
    0.5722 	   41.1940 	    3.0000 	    6.0000 	   32.8179 
    0.5112 	   41.2580 	    3.0000 	    6.0000 	   32.8499 
    0.6027 	   41.3260 	    3.0000 	    6.0000 	   32.8839 
    0.5417 	   41.3940 	    3.0000 	    6.0000 	   32.9179 
    0.6485 	   41.4640 	    3.0000 	    6.0000 	   32.9519 
    0.7248 	   41.5300 	    3.0000 	    6.0000 	   32.9859 
    0.6180 	   41.5920 	    3.0000 	    6.0000 	   33.0169 
    0.7401 	   41.6620 	    3.0000 	    6.0000 	   33.0519 
    0.6485 	   41.7260 	    3.0000 	    6.0000 	   33.0839 
    0.6027 	   41.8000 	    3.0000 	    6.0000 	   33.1209 
    0.5570 	   41.8700 	    3.0000 	    6.0000 	   33.1559 
    0.6180 	   41.9380 	    3.0000 	    6.0000 	   33.1899 
    0.6332 	   42.0060 	    3.0000 	    6.0000 	   33.2239 
    0.7401 	   42.0740 	    3.0000 	    6.0000 	   33.2579 
    0.4807 	   42.1480 	    3.0000 	    6.0000 	   33.2949 
    0.7401 	   42.2160 	    3.0000 	    6.0000 	   33.3289 
    0.6485 	   42.2820 	    3.0000 	    6.0000 	   33.3619 
    0.7553 	   42.3480 	    3.0000 	    6.0000 	   33.3949 
    0.3738 	   42.4140 	    3.0000 	    6.0000 	   33.4279 
    0.6180 	   42.4780 	    3.0000 	    6.0000 	   33.4599 
    0.3891 	   42.5420 	    3.0000 	    6.0000 	   33.4919 
    0.6638 	   42.6020 	    3.0000 	    6.0000 	   33.5219 
    0.5264 	   42.6620 	    3.0000 	    6.0000 	   33.5519 
    0.7401 	   42.7200 	    3.0000 	    6.0000 	   33.5809 
    0.6638 	   42.7820 	    3.0000 	    6.0000 	   33.6119 
    0.7095 	   42.8440 	    3.0000 	    6.0000 	   33.6429 
    0.4959 	   42.9040 	    3.0000 	    6.0000 	   33.6729 
    0.5112 	   42.9720 	    3.0000 	    6.0000 	   33.7069 
    0.6485 	   43.0440 	    3.0000 	    6.0000 	   33.7429 
    0.6638 	   43.1120 	    3.0000 	    6.0000 	   33.7769 
    0.7095 	   43.1880 	    3.0000 	    6.0000 	   33.8149 
    0.6790 	   43.2560 	    3.0000 	    6.0000 	   33.8489 
    0.5875 	   43.3220 	    3.0000 	    6.0000 	   33.8819 
    0.5417 	   43.3900 	    3.0000 	    6.0000 	   33.9159 
    0.6790 	   43.4560 	    3.0000 	    6.0000 	   33.9489 
    0.6027 	   43.5220 	    3.0000 	    6.0000 	   33.9819 
    0.7706 	   43.5840 	    3.0000 	    6.0000 	   34.0129 
    0.4654 	   43.6460 	    3.0000 	    6.0000 	   34.0439 
    0.6180 	   43.7140 	    3.0000 	    6.0000 	   34.0779 
    0.6332 	   43.7880 	    3.0000 	    6.0000 	   34.1149 
    0.5875 	   43.8580 	    3.0000 	    6.0000 	   34.1499 
    0.7248 	   43.9300 	    3.0000 	    6.0000 	   34.1860 
    0.5570 	   43.9980 	    3.0000 	    6.0000 	   34.2200 
    0.4501 	   44.0640 	    3.0000 	    6.0000 	   34.2530 
    0.5570 	   44.1360 	    3.0000 	    6.0000 	   34.2890 
    0.6180 	   44.2140 	    3.0000 	    6.0000 	   34.3280 
    0.6943 	   44.2840 	    3.0000 	    6.0000 	   34.3630 
    0.3738 	   44.3500 	    3.0000 	    6.0000 	   34.3960 
    0.5875 	   44.4200 	    3.0000 	    6.0000 	   34.4310 
    0.6332 	   44.4840 	    3.0000 	    6.0000 	   34.4630 
    0.5722 	   44.5460 	    3.0000 	    6.0000 	   34.4940 
    0.7248 	   44.6080 	    3.0000 	    6.0000 	   34.5250 
    0.6332 	   44.6720 	    3.0000 	    6.0000 	   34.5570 
    0.3891 	   44.7340 	    3.0000 	    6.0000 	   34.5880 
    0.8164 	   44.7940 	    3.0000 	    6.0000 	   34.6180 
    0.6332 	   44.8560 	    3.0000 	    6.0000 	   34.6490 
    0.7248 	   44.9160 	    3.0000 	    6.0000 	   34.6790 
    0.6790 	   44.9820 	    3.0000 	    6.0000 	   34.7120 
    0.5570 	   45.0500 	    3.0000 	    6.0000 	   34.7460 
    0.6790 	   45.1160 	    3.0000 	    6.0000 	   34.7790 
    0.6180 	   45.1900 	    3.0000 	    6.0000 	   34.8160 
    0.6485 	   45.2580 	    3.0000 	    6.0000 	   34.8500 
    0.7248 	   45.3280 	    3.0000 	    6.0000 	   34.8850 
    0.6180 	   45.3960 	    3.0000 	    6.0000 	   34.9190 
    0.6027 	   45.4620 	    3.0000 	    6.0000 	   34.9520 
    0.6485 	   45.5320 	    3.0000 	    6.0000 	   34.9870 
    0.6332 	   45.6000 	    3.0000 	    6.0000 	   35.0210 
    0.5264 	   45.6700 	    3.0000 	    6.0000 	   35.0560 
    0.5722 	   45.7380 	    3.0000 	    6.0000 	   35.0900 
    0.5570 	   45.8080 	    3.0000 	    6.0000 	   35.1250 
    0.5264 	   45.8780 	    3.0000 	    6.0000 	   35.1590 
    0.6027 	   45.9500 	    3.0000 	    6.0000 	   35.1960 
    0.7706 	   46.0180 	    3.0000 	    6.0000 	   35.2300 
    0.6790 	   46.0900 	    3.0000 	    6.0000 	   35.2660 
    0.6332 	   46.1700 	    3.0000 	    6.0000 	   35.3050 
    0.5264 	   46.2360 	    3.0000 	    6.0000 	   35.3380 
    0.5722 	   46.3080 	    3.0000 	    6.0000 	   35.3730 
    0.7401 	   46.3820 	    3.0000 	    6.0000 	   35.4110 
    0.8011 	   46.4460 	    3.0000 	    6.0000 	   35.4430 
    0.3738 	   46.5100 	    3.0000 	    6.0000 	   35.4750 
    0.6332 	   46.5700 	    3.0000 	    6.0000 	   35.5050 
    0.6180 	   46.6340 	    3.0000 	    6.0000 	   35.5370 
    0.4349 	   46.6980 	    3.0000 	    6.0000 	   35.5690 
    0.5112 	   46.7620 	    3.0000 	    6.0000 	   35.6010 
    0.6332 	   46.8240 	    3.0000 	    6.0000 	   35.6320 
    0.6180 	   46.8840 	    3.0000 	    6.0000 	   35.6620 
    0.5264 	   46.9440 	    3.0000 	    6.0000 	   35.6920 
    0.5875 	   47.0060 	    3.0000 	    6.0000 	   35.7230 
    0.6027 	   47.0680 	    3.0000 	    6.0000 	   35.7540 
    0.6180 	   47.1440 	    3.0000 	    6.0000 	   35.7920 
    0.5722 	   47.2120 	    3.0000 	    6.0000 	   35.8260 
    0.6485 	   47.2780 	    3.0000 	    6.0000 	   35.8590 
    0.6180 	   47.3440 	    3.0000 	    6.0000 	   35.8920 
    0.6332 	   47.4140 	    3.0000 	    6.0000 	   35.9271 
    0.5570 	   47.4820 	    3.0000 	    6.0000 	   35.9611 
    0.7401 	   47.5500 	    3.0000 	    6.0000 	   35.9951 
    0.6180 	   47.6180 	    3.0000 	    6.0000 	   36.0291 
    0.6485 	   47.6860 	    3.0000 	    6.0000 	   36.0631 
    0.6638 	   47.7520 	    3.0000 	    6.0000 	   36.0961 
    0.6790 	   47.8180 	    3.0000 	    6.0000 	   36.1291 
    0.2976 	   47.8900 	    3.0000 	    6.0000 	   36.1651 
    0.2823 	   47.9620 	    3.0000 	    6.0000 	   36.2011 
    0.6638 	   48.0340 	    3.0000 	    6.0000 	   36.2371 
    0.7095 	   48.1040 	    3.0000 	    6.0000 	   36.2721 
    0.6485 	   48.1800 	    3.0000 	    6.0000 	   36.3101 
    0.5417 	   48.2500 	    3.0000 	    6.0000 	   36.3451 
    0.6180 	   48.3220 	    3.0000 	    6.0000 	   36.3811 
    0.6943 	   48.3920 	    3.0000 	    6.0000 	   36.4161 
    0.5264 	   48.4600 	    3.0000 	    6.0000 	   36.4501 
    0.7706 	   48.5240 	    3.0000 	    6.0000 	   36.4821 
    0.6027 	   48.5900 	    3.0000 	    6.0000 	   36.5151 
    0.4196 	   48.6560 	    3.0000 	    6.0000 	   36.5481 
    0.6332 	   48.7200 	    3.0000 	    6.0000 	   36.5801 
    0.6180 	   48.7840 	    3.0000 	    6.0000 	   36.6121 
    0.7095 	   48.8440 	    3.0000 	    6.0000 	   36.6421 
    0.5875 	   48.9040 	    3.0000 	    6.0000 	   36.6711 
    0.6485 	   48.9640 	    3.0000 	    6.0000 	   36.7021 
    0.6638 	   49.0240 	    3.0000 	    6.0000 	   36.7321 
    0.6332 	   49.0860 	    3.0000 	    6.0000 	   36.7631 
    0.7706 	   49.1580 	    3.0000 	    6.0000 	   36.7991 
    0.7858 	   49.2280 	    3.0000 	    6.0000 	   36.8341 
    0.7095 	   49.2880 	    3.0000 	    6.0000 	   36.8641 
    0.7858 	   49.3520 	    3.0000 	    6.0000 	   36.8961 
    0.4654 	   49.4140 	    3.0000 	    6.0000 	   36.9271 
    0.6638 	   49.4780 	    3.0000 	    6.0000 	   36.9591 
    0.6332 	   49.5500 	    3.0000 	    6.0000 	   36.9951 
    0.7095 	   49.6100 	    3.0000 	    6.0000 	   37.0251 
    0.7095 	   49.6820 	    3.0000 	    6.0000 	   37.0611 
    0.6638 	   49.7520 	    3.0000 	    6.0000 	   37.0961 
    0.8316 	   49.8220 	    3.0000 	    6.0000 	   37.1311 
    0.4959 	   49.8920 	    3.0000 	    6.0000 	   37.1661 
    0.5417 	   49.9660 	    3.0000 	    6.0000 	   37.2031 
    0.6332 	   50.0340 	    3.0000 	    6.0000 	   37.2371 
    0.7401 	   50.1060 	    3.0000 	    6.0000 	   37.2731 
    0.6027 	   50.1860 	    3.0000 	    6.0000 	   37.3131 
    0.6485 	   50.2540 	    3.0000 	    6.0000 	   37.3461 
    0.6943 	   50.3200 	    3.0000 	    6.0000 	   37.3801 
    0.6638 	   50.3920 	    3.0000 	    6.0000 	   37.4161 
    0.7858 	   50.4620 	    3.0000 	    6.0000 	   37.4511 
    0.7248 	   50.5260 	    3.0000 	    6.0000 	   37.4831 
    0.6027 	   50.5940 	    3.0000 	    6.0000 	   37.5171 
    0.7095 	   50.6580 	    3.0000 	    6.0000 	   37.5491 
    0.6790 	   50.7280 	    3.0000 	    6.0000 	   37.5841 
    0.8774 	   50.7880 	    3.0000 	    6.0000 	   37.6141 
    0.6638 	   50.8520 	    3.0000 	    6.0000 	   37.6461 
    0.6485 	   50.9140 	    3.0000 	    6.0000 	   37.6772 
    0.6332 	   50.9740 	    3.0000 	    6.0000 	   37.7072 
    0.5570 	   51.0360 	    3.0000 	    6.0000 	   37.7382 
    0.6180 	   51.0960 	    3.0000 	    6.0000 	   37.7682 
    0.8621 	   51.1740 	    3.0000 	    6.0000 	   37.8072 
    0.4959 	   51.2460 	    3.0000 	    6.0000 	   37.8432 
    0.5570 	   51.3160 	    3.0000 	    6.0000 	   37.8782 
    0.6332 	   51.3800 	    3.0000 	    6.0000 	   37.9102 
    0.8164 	   51.4500 	    3.0000 	    6.0000 	   37.9452 
    0.7706 	   51.5200 	    3.0000 	    6.0000 	   37.9802 
    0.7248 	   51.5880 	    3.0000 	    6.0000 	   38.0142 
    0.7401 	   51.6580 	    3.0000 	    6.0000 	   38.0492 
    0.6943 	   51.7320 	    3.0000 	    6.0000 	   38.0862 
    0.7706 	   51.8000 	    3.0000 	    6.0000 	   38.1202 
    0.7553 	   51.8680 	    3.0000 	    6.0000 	   38.1542 
    0.6485 	   51.9400 	    3.0000 	    6.0000 	   38.1902 
    0.6180 	   52.0080 	    3.0000 	    6.0000 	   38.2242 
    0.6027 	   52.0760 	    3.0000 	    6.0000 	   38.2582 
    0.8621 	   52.1560 	    3.0000 	    6.0000 	   38.2982 
    0.6943 	   52.2220 	    3.0000 	    6.0000 	   38.3312 
    0.6180 	   52.2840 	    3.0000 	    6.0000 	   38.3622 
    0.6332 	   52.3480 	    3.0000 	    6.0000 	   38.3942 
    0.7401 	   52.4100 	    3.0000 	    6.0000 	   38.4252 
    0.8316 	   52.4720 	    3.0000 	    6.0000 	   38.4562 
    0.6485 	   52.5380 	    3.0000 	    6.0000 	   38.4892 
    0.6027 	   52.6040 	    3.0000 	    6.0000 	   38.5212 
    0.6180 	   52.6700 	    3.0000 	    6.0000 	   38.5552 
    0.5875 	   52.7320 	    3.0000 	    6.0000 	   38.5862 
    0.7248 	   52.7960 	    3.0000 	    6.0000 	   38.6182 
    0.7553 	   52.8560 	    3.0000 	    6.0000 	   38.6482 
    0.4807 	   52.9160 	    3.0000 	    6.0000 	   38.6782 
    0.7553 	   52.9760 	    3.0000 	    6.0000 	   38.7082 
    0.8011 	   53.0380 	    3.0000 	    6.0000 	   38.7392 
    0.6943 	   53.1000 	    3.0000 	    6.0000 	   38.7702 
    0.6332 	   53.1800 	    3.0000 	    6.0000 	   38.8102 
    0.6943 	   53.2540 	    3.0000 	    6.0000 	   38.8472 
    0.8621 	   53.3260 	    3.0000 	    6.0000 	   38.8832 
    0.9537 	   53.3980 	    3.0000 	    6.0000 	   38.9192 
    0.6332 	   53.4700 	    3.0000 	    6.0000 	   38.9552 
    0.6332 	   53.5420 	    3.0000 	    6.0000 	   38.9912 
    0.6638 	   53.6120 	    3.0000 	    6.0000 	   39.0262 
    0.6638 	   53.6800 	    3.0000 	    6.0000 	   39.0602 
    0.7401 	   53.7480 	    3.0000 	    6.0000 	   39.0942 
    0.6332 	   53.8160 	    3.0000 	    6.0000 	   39.1282 
    0.7401 	   53.8860 	    3.0000 	    6.0000 	   39.1632 
    0.4654 	   53.9560 	    3.0000 	    6.0000 	   39.1982 
    0.6485 	   54.0260 	    3.0000 	    6.0000 	   39.2332 
    0.7553 	   54.0980 	    3.0000 	    6.0000 	   39.2692 
    0.3281 	   54.1740 	    3.0000 	    6.0000 	   39.3072 
    0.8011 	   54.2440 	    3.0000 	    6.0000 	   39.3422 
    0.6943 	   54.3160 	    3.0000 	    6.0000 	   39.3783 
    0.6332 	   54.3820 	    3.0000 	    6.0000 	   39.4113 
    0.6485 	   54.4500 	    3.0000 	    6.0000 	   39.4453 
    0.6943 	   54.5160 	    3.0000 	    6.0000 	   39.4783 
    0.6943 	   54.5800 	    3.0000 	    6.0000 	   39.5103 
    0.4959 	   54.6500 	    3.0000 	    6.0000 	   39.5453 
    0.7401 	   54.7180 	    3.0000 	    6.0000 	   39.5793 
    0.6180 	   54.7860 	    3.0000 	    6.0000 	   39.6133 
    0.8316 	   54.8500 	    3.0000 	    6.0000 	   39.6453 
    0.5875 	   54.9120 	    3.0000 	    6.0000 	   39.6763 
    0.3281 	   54.9740 	    3.0000 	    6.0000 	   39.7073 
    0.5875 	   55.0380 	    3.0000 	    6.0000 	   39.7393 
    0.5722 	   55.1040 	    3.0000 	    6.0000 	   39.7723 
    0.5570 	   55.1820 	    3.0000 	    6.0000 	   39.8113 
    0.6485 	   55.2520 	    3.0000 	    6.0000 	   39.8463 
    0.7095 	   55.3180 	    3.0000 	    6.0000 	   39.8793 
    0.6332 	   55.3840 	    3.0000 	    6.0000 	   39.9123 
    0.7095 	   55.4560 	    3.0000 	    6.0000 	   39.9483 
    0.5722 	   55.5260 	    3.0000 	    6.0000 	   39.9833 
    0.7095 	   55.6000 	    3.0000 	    6.0000 	   40.0203 
    0.7706 	   55.6740 	    3.0000 	    6.0000 	   40.0573 
    0.8011 	   55.7440 	    3.0000 	    6.0000 	   40.0923 
    0.5722 	   55.8140 	    3.0000 	    6.0000 	   40.1273 
    0.8164 	   55.8900 	    3.0000 	    6.0000 	   40.1653 
    0.7553 	   55.9620 	    3.0000 	    6.0000 	   40.2013 
    0.5722 	   56.0300 	    3.0000 	    6.0000 	   40.2353 
    0.7553 	   56.1020 	    3.0000 	    6.0000 	   40.2713 
    0.5417 	   56.1780 	    3.0000 	    6.0000 	   40.3093 
    0.6485 	   56.2520 	    3.0000 	    6.0000 	   40.3463 
    0.6180 	   56.3240 	    3.0000 	    6.0000 	   40.3823 
    0.6332 	   56.3940 	    3.0000 	    6.0000 	   40.4173 
    0.6027 	   56.4700 	    3.0000 	    6.0000 	   40.4553 
    0.5875 	   56.5360 	    3.0000 	    6.0000 	   40.4883 
    0.6485 	   56.6020 	    3.0000 	    6.0000 	   40.5213 
    0.6332 	   56.6640 	    3.0000 	    6.0000 	   40.5523 
    0.6180 	   56.7260 	    3.0000 	    6.0000 	   40.5833 
    0.6332 	   56.7940 	    3.0000 	    6.0000 	   40.6173 
    0.5722 	   56.8580 	    3.0000 	    6.0000 	   40.6493 
    0.7095 	   56.9220 	    3.0000 	    6.0000 	   40.6813 
    0.8164 	   56.9860 	    3.0000 	    6.0000 	   40.7133 
    0.5264 	   57.0500 	    3.0000 	    6.0000 	   40.7453 
    0.6180 	   57.1120 	    3.0000 	    6.0000 	   40.7763 
    0.5264 	   57.1820 	    3.0000 	    6.0000 	   40.8113 
    0.5722 	   57.2440 	    3.0000 	    6.0000 	   40.8423 
    0.7553 	   57.3060 	    3.0000 	    6.0000 	   40.8733 
    0.6943 	   57.3680 	    3.0000 	    6.0000 	   40.9043 
    0.6790 	   57.4300 	    3.0000 	    6.0000 	   40.9353 
    0.7706 	   57.4940 	    3.0000 	    6.0000 	   40.9673 
    0.5722 	   57.5620 	    3.0000 	    6.0000 	   41.0013 
    0.6638 	   57.6320 	    3.0000 	    6.0000 	   41.0363 
    0.4959 	   57.7060 	    3.0000 	    6.0000 	   41.0733 
    0.6638 	   57.7780 	    3.0000 	    6.0000 	   41.1093 
    0.5264 	   57.8500 	    3.0000 	    6.0000 	   41.1454 
    0.6943 	   57.9240 	    3.0000 	    6.0000 	   41.1824 
    0.6180 	   57.9960 	    3.0000 	    6.0000 	   41.2184 
    0.5417 	   58.0640 	    3.0000 	    6.0000 	   41.2524 
    0.5417 	   58.1340 	    3.0000 	    6.0000 	   41.2874 
    0.6180 	   58.2140 	    3.0000 	    6.0000 	   41.3274 
    0.5417 	   58.2900 	    3.0000 	    6.0000 	   41.3654 
    0.5417 	   58.3620 	    3.0000 	    6.0000 	   41.4014 
    0.6180 	   58.4320 	    3.0000 	    6.0000 	   41.4364 
    0.4196 	   58.4940 	    3.0000 	    6.0000 	   41.4674 
    0.5722 	   58.5680 	    3.0000 	    6.0000 	   41.5044 
    0.5875 	   58.6300 	    3.0000 	    6.0000 	   41.5354 
    0.6943 	   58.6940 	    3.0000 	    6.0000 	   41.5674 
    0.5417 	   58.7600 	    3.0000 	    6.0000 	   41.6004 
    0.5417 	   58.8260 	    3.0000 	    6.0000 	   41.6334 
    0.5722 	   58.8900 	    3.0000 	    6.0000 	   41.6654 
    0.6943 	   58.9500 	    3.0000 	    6.0000 	   41.6954 
    0.4044 	   59.0120 	    3.0000 	    6.0000 	   41.7264 
    0.5112 	   59.0760 	    3.0000 	    6.0000 	   41.7584 
    0.5112 	   59.1480 	    3.0000 	    6.0000 	   41.7944 
    0.4807 	   59.2120 	    3.0000 	    6.0000 	   41.8264 
    0.5875 	   59.2800 	    3.0000 	    6.0000 	   41.8604 
    0.6638 	   59.3520 	    3.0000 	    6.0000 	   41.8964 
    0.6027 	   59.4220 	    3.0000 	    6.0000 	   41.9314 
    0.4349 	   59.4920 	    3.0000 	    6.0000 	   41.9664 
    0.5417 	   59.5560 	    3.0000 	    6.0000 	   41.9984 
    0.6638 	   59.6260 	    3.0000 	    6.0000 	   42.0334 
    0.4196 	   59.7020 	    3.0000 	    6.0000 	   42.0714 
    0.6485 	   59.7740 	    3.0000 	    6.0000 	   42.1074 
    0.6180 	   59.8480 	    3.0000 	    6.0000 	   42.1444 
    0.5112 	   59.9200 	    3.0000 	    6.0000 	   42.1804 
    0.5112 	   59.9880 	    3.0000 	    6.0000 	   42.2144 
    0.5417 	   60.0580 	    3.0000 	    6.0000 	   42.2494 
    0.6180 	   60.1320 	    3.0000 	    6.0000 	   42.2864 
    0.5570 	   60.2080 	    3.0000 	    6.0000 	   42.3244 
    0.5264 	   60.2800 	    3.0000 	    6.0000 	   42.3604 
    0.5875 	   60.3480 	    3.0000 	    6.0000 	   42.3944 
    0.4959 	   60.4200 	    3.0000 	    6.0000 	   42.4304 
    0.5570 	   60.4860 	    3.0000 	    6.0000 	   42.4634 
    0.4807 	   60.5600 	    3.0000 	    6.0000 	   42.5004 
    0.6180 	   60.6300 	    3.0000 	    6.0000 	   42.5354 
    0.4044 	   60.6940 	    3.0000 	    6.0000 	   42.5674 
    0.5875 	   60.7600 	    3.0000 	    6.0000 	   42.6004 
    0.6027 	   60.8260 	    3.0000 	    6.0000 	   42.6334 
    0.4959 	   60.8920 	    3.0000 	    6.0000 	   42.6664 
    0.5264 	   60.9520 	    3.0000 	    6.0000 	   42.6964 
    0.6027 	   61.0140 	    3.0000 	    6.0000 	   42.7274 
    0.6027 	   61.0820 	    3.0000 	    6.0000 	   42.7614 
    0.5112 	   61.1540 	    3.0000 	    6.0000 	   42.7974 
    0.5112 	   61.2280 	    3.0000 	    6.0000 	   42.8344 
    0.6180 	   61.3040 	    3.0000 	    6.0000 	   42.8724 
    0.5875 	   61.3740 	    3.0000 	    6.0000 	   42.9075 
    0.5570 	   61.4460 	    3.0000 	    6.0000 	   42.9435 
    0.4654 	   61.5160 	    3.0000 	    6.0000 	   42.9785 
    0.6180 	   61.5880 	    3.0000 	    6.0000 	   43.0145 
    0.6790 	   61.6600 	    3.0000 	    6.0000 	   43.0505 
    0.5722 	   61.7360 	    3.0000 	    6.0000 	   43.0885 
    0.4501 	   61.8100 	    3.0000 	    6.0000 	   43.1255 
    0.4654 	   61.8780 	    3.0000 	    6.0000 	   43.1595 
    0.6332 	   61.9500 	    3.0000 	    6.0000 	   43.1955 
    0.5417 	   62.0200 	    3.0000 	    6.0000 	   43.2305 
    0.4654 	   62.0940 	    3.0000 	    6.0000 	   43.2675 
    0.5112 	   62.1800 	    3.0000 	    6.0000 	   43.3105 
    0.4654 	   62.2560 	    3.0000 	    6.0000 	   43.3485 
    0.4196 	   62.3300 	    3.0000 	    6.0000 	   43.3855 
    0.6943 	   62.4040 	    3.0000 	    6.0000 	   43.4225 
    0.4959 	   62.4780 	    3.0000 	    6.0000 	   43.4595 
    0.4959 	   62.5420 	    3.0000 	    6.0000 	   43.4915 
    0.4349 	   62.6100 	    3.0000 	    6.0000 	   43.5255 
    0.6332 	   62.6800 	    3.0000 	    6.0000 	   43.5605 
    0.6180 	   62.7480 	    3.0000 	    6.0000 	   43.5945 
    0.3128 	   62.8120 	    3.0000 	    6.0000 	   43.6265 
    0.5875 	   62.8760 	    3.0000 	    6.0000 	   43.6585 
    0.4501 	   62.9380 	    3.0000 	    6.0000 	   43.6895 
    0.4654 	   63.0040 	    3.0000 	    6.0000 	   43.7225 
    0.6790 	   63.0720 	    3.0000 	    6.0000 	   43.7565 
    0.4196 	   63.1400 	    3.0000 	    6.0000 	   43.7905 
    0.5722 	   63.2060 	    3.0000 	    6.0000 	   43.8235 
    0.4654 	   63.2700 	    3.0000 	    6.0000 	   43.8555 
    0.6180 	   63.3340 	    3.0000 	    6.0000 	   43.8875 
    0.2823 	   63.3980 	    3.0000 	    6.0000 	   43.9195 
    0.4959 	   63.4640 	    3.0000 	    6.0000 	   43.9525 
    0.4501 	   63.5320 	    3.0000 	    6.0000 	   43.9865 
    0.4501 	   63.5960 	    3.0000 	    6.0000 	   44.0185 
    0.4501 	   63.6600 	    3.0000 	    6.0000 	   44.0505 
    0.6332 	   63.7260 	    3.0000 	    6.0000 	   44.0835 
    0.5264 	   63.7880 	    3.0000 	    6.0000 	   44.1145 
    0.5722 	   63.8580 	    3.0000 	    6.0000 	   44.1495 
    0.4349 	   63.9340 	    3.0000 	    6.0000 	   44.1875 
    0.6027 	   64.0060 	    3.0000 	    6.0000 	   44.2235 
    0.5264 	   64.0760 	    3.0000 	    6.0000 	   44.2585 
    0.4654 	   64.1540 	    3.0000 	    6.0000 	   44.2975 
    0.5570 	   64.2240 	    3.0000 	    6.0000 	   44.3325 
    0.6180 	   64.2980 	    3.0000 	    6.0000 	   44.3695 
    0.5417 	   64.3720 	    3.0000 	    6.0000 	   44.4065 
    0.6332 	   64.4440 	    3.0000 	    6.0000 	   44.4425 
    0.4959 	   64.5160 	    3.0000 	    6.0000 	   44.4785 
    0.6485 	   64.5820 	    3.0000 	    6.0000 	   44.5115 
    0.6027 	   64.6480 	    3.0000 	    6.0000 	   44.5445 
    0.5722 	   64.7160 	    3.0000 	    6.0000 	   44.5785 
    0.5112 	   64.7840 	    3.0000 	    6.0000 	   44.6125 
    0.5722 	   64.8500 	    3.0000 	    6.0000 	   44.6455 
    0.4807 	   64.9160 	    3.0000 	    6.0000 	   44.6786 
    0.6180 	   64.9800 	    3.0000 	    6.0000 	   44.7106 
    0.5570 	   65.0440 	    3.0000 	    6.0000 	   44.7426 
    0.4807 	   65.1120 	    3.0000 	    6.0000 	   44.7766 
    0.4959 	   65.1780 	    3.0000 	    6.0000 	   44.8096 
    0.5264 	   65.2500 	    3.0000 	    6.0000 	   44.8456 
    0.5417 	   65.3220 	    3.0000 	    6.0000 	   44.8816 
    0.5722 	   65.3920 	    3.0000 	    6.0000 	   44.9166 
    0.4654 	   65.4700 	    3.0000 	    6.0000 	   44.9556 
    0.5875 	   65.5440 	    3.0000 	    6.0000 	   44.9926 
    0.6485 	   65.6120 	    3.0000 	    6.0000 	   45.0266 
    0.5875 	   65.6840 	    3.0000 	    6.0000 	   45.0626 
    0.5875 	   65.7520 	    3.0000 	    6.0000 	   45.0966 
    0.6790 	   65.8180 	    3.0000 	    6.0000 	   45.1296 
    0.5417 	   65.8840 	    3.0000 	    6.0000 	   45.1626 
    0.4807 	   65.9500 	    3.0000 	    6.0000 	   45.1956 
    0.5722 	   66.0180 	    3.0000 	    6.0000 	   45.2296 
    0.2213 	   66.0840 	    3.0000 	    6.0000 	   45.2626 
    0.4807 	   66.1540 	    3.0000 	    6.0000 	   45.2976 
    0.4044 	   66.2220 	    3.0000 	    6.0000 	   45.3316 
    0.5264 	   66.2880 	    3.0000 	    6.0000 	   45.3646 
    0.5570 	   66.3540 	    3.0000 	    6.0000 	   45.3976 
    0.7095 	   66.4260 	    3.0000 	    6.0000 	   45.4336 
    0.4196 	   66.4940 	    3.0000 	    6.0000 	   45.4676 
    0.5112 	   66.5580 	    3.0000 	    6.0000 	   45.4996 
    0.1907 	   66.6220 	    3.0000 	    6.0000 	   45.5316 
    0.5264 	   66.6920 	    3.0000 	    6.0000 	   45.5666 
    0.3738 	   66.7560 	    3.0000 	    6.0000 	   45.5986 
    0.5264 	   66.8240 	    3.0000 	    6.0000 	   45.6326 
    0.5264 	   66.8900 	    3.0000 	    6.0000 	   45.6656 
    0.5112 	   66.9540 	    3.0000 	    6.0000 	   45.6976 
    0.4959 	   67.0200 	    3.0000 	    6.0000 	   45.7306 
    0.6485 	   67.0940 	    3.0000 	    6.0000 	   45.7676 
    0.3738 	   67.1660 	    3.0000 	    6.0000 	   45.8036 
    0.5722 	   67.2420 	    3.0000 	    6.0000 	   45.8416 
    0.6027 	   67.3140 	    3.0000 	    6.0000 	   45.8776 
    0.5112 	   67.3920 	    3.0000 	    6.0000 	   45.9166 
    0.5875 	   67.4700 	    3.0000 	    6.0000 	   45.9556 
    0.5264 	   67.5400 	    3.0000 	    6.0000 	   45.9906 
    0.4654 	   67.6160 	    3.0000 	    6.0000 	   46.0286 
    0.4196 	   67.6860 	    3.0000 	    6.0000 	   46.0636 
    0.5264 	   67.7500 	    3.0000 	    6.0000 	   46.0956 
    0.4349 	   67.8240 	    3.0000 	    6.0000 	   46.1326 
    0.5112 	   67.8940 	    3.0000 	    6.0000 	   46.1676 
    0.6332 	   67.9600 	    3.0000 	    6.0000 	   46.2006 
    0.5417 	   68.0260 	    3.0000 	    6.0000 	   46.2336 
    0.4959 	   68.0920 	    3.0000 	    6.0000 	   46.2666 
    0.4654 	   68.1620 	    3.0000 	    6.0000 	   46.3016 
    0.6180 	   68.2320 	    3.0000 	    6.0000 	   46.3366 
    0.4959 	   68.3080 	    3.0000 	    6.0000 	   46.3746 
    0.6638 	   68.3820 	    3.0000 	    6.0000 	   46.4117 
    0.4654 	   68.4560 	    3.0000 	    6.0000 	   46.4487 
    0.5875 	   68.5260 	    3.0000 	    6.0000 	   46.4837 
    0.6027 	   68.5980 	    3.0000 	    6.0000 	   46.5197 
    0.2365 	   68.6680 	    3.0000 	    6.0000 	   46.5547 
    0.6027 	   68.7360 	    3.0000 	    6.0000 	   46.5887 
    0.3738 	   68.8020 	    3.0000 	    6.0000 	   46.6217 
    0.5112 	   68.8720 	    3.0000 	    6.0000 	   46.6567 
    0.4501 	   68.9360 	    3.0000 	    6.0000 	   46.6887 
    0.5264 	   69.0000 	    3.0000 	    6.0000 	   46.7207 
    0.5570 	   69.0660 	    3.0000 	    6.0000 	   46.7537 
    0.4349 	   69.1360 	    3.0000 	    6.0000 	   46.7887 
    0.4654 	   69.2120 	    3.0000 	    6.0000 	   46.8267 
    0.4349 	   69.2860 	    3.0000 	    6.0000 	   46.8637 
    0.4044 	   69.3620 	    3.0000 	    6.0000 	   46.9017 
    0.4501 	   69.4380 	    3.0000 	    6.0000 	   46.9397 
    0.6485 	   69.5060 	    3.0000 	    6.0000 	   46.9737 
    0.4959 	   69.5760 	    3.0000 	    6.0000 	   47.0087 
    0.3738 	   69.6460 	    3.0000 	    6.0000 	   47.0437 
    0.4959 	   69.7160 	    3.0000 	    6.0000 	   47.0787 
    0.1297 	   69.7860 	    3.0000 	    6.0000 	   47.1137 
    0.4501 	   69.8580 	    3.0000 	    6.0000 	   47.1497 
    0.4959 	   69.9300 	    3.0000 	    6.0000 	   47.1857 
    0.4501 	   70.0020 	    3.0000 	    6.0000 	   47.2217 
    0.5875 	   70.0760 	    3.0000 	    6.0000 	   47.2587 
    0.3738 	   70.1580 	    3.0000 	    6.0000 	   47.2997 
    0.8774 	   70.2300 	    3.0000 	    6.0000 	   47.3357 
    0.6790 	   70.3020 	    3.0000 	    6.0000 	   47.3717 
    0.4501 	   70.3800 	    3.0000 	    6.0000 	   47.4107 
    0.4959 	   70.4580 	    3.0000 	    6.0000 	   47.4497 
    0.5875 	   70.5380 	    3.0000 	    6.0000 	   47.4897 
    0.4196 	   70.6080 	    3.0000 	    6.0000 	   47.5247 
    0.5875 	   70.6780 	    3.0000 	    6.0000 	   47.5597 
    0.4654 	   70.7460 	    3.0000 	    6.0000 	   47.5937 
    0.5112 	   70.8140 	    3.0000 	    6.0000 	   47.6277 
    0.3281 	   70.8820 	    3.0000 	    6.0000 	   47.6617 
    0.5417 	   70.9500 	    3.0000 	    6.0000 	   47.6957 
    0.5570 	   71.0140 	    3.0000 	    6.0000 	   47.7277 
    0.4349 	   71.0800 	    3.0000 	    6.0000 	   47.7607 
    0.4196 	   71.1460 	    3.0000 	    6.0000 	   47.7937 
    0.2823 	   71.2120 	    3.0000 	    6.0000 	   47.8267 
    0.5264 	   71.2800 	    3.0000 	    6.0000 	   47.8607 
    0.5264 	   71.3460 	    3.0000 	    6.0000 	   47.8937 
    0.5264 	   71.4120 	    3.0000 	    6.0000 	   47.9267 
    0.6332 	   71.4820 	    3.0000 	    6.0000 	   47.9617 
    0.4501 	   71.5540 	    3.0000 	    6.0000 	   47.9977 
    0.4044 	   71.6240 	    3.0000 	    6.0000 	   48.0327 
    0.3738 	   71.6980 	    3.0000 	    6.0000 	   48.0697 
    0.3891 	   71.7680 	    3.0000 	    6.0000 	   48.1047 
    0.4959 	   71.8420 	    3.0000 	    6.0000 	   48.1418 
    0.5264 	   71.9120 	    3.0000 	    6.0000 	   48.1768 
    0.5112 	   71.9840 	    3.0000 	    6.0000 	   48.2128 
    0.4349 	   72.0600 	    3.0000 	    6.0000 	   48.2508 
    0.4654 	   72.1340 	    3.0000 	    6.0000 	   48.2878 
    0.6180 	   72.2180 	    3.0000 	    6.0000 	   48.3298 
    0.5875 	   72.2920 	    3.0000 	    6.0000 	   48.3668 
    0.4959 	   72.3760 	    3.0000 	    6.0000 	   48.4088 
    0.4959 	   72.4540 	    3.0000 	    6.0000 	   48.4478 
    0.5112 	   72.5320 	    3.0000 	    6.0000 	   48.4868 
    0.4807 	   72.6000 	    3.0000 	    6.0000 	   48.5208 
    0.5417 	   72.6720 	    3.0000 	    6.0000 	   48.5568 
    0.4349 	   72.7420 	    3.0000 	    6.0000 	   48.5918 
    0.5417 	   72.8120 	    3.0000 	    6.0000 	   48.6268 
    0.5112 	   72.8800 	    3.0000 	    6.0000 	   48.6608 
    0.6180 	   72.9520 	    3.0000 	    6.0000 	   48.6968 
    0.1602 	   73.0180 	    3.0000 	    6.0000 	   48.7298 
    0.4654 	   73.0860 	    3.0000 	    6.0000 	   48.7638 
    0.4196 	   73.1600 	    3.0000 	    6.0000 	   48.8008 
    0.4807 	   73.2360 	    3.0000 	    6.0000 	   48.8388 
    0.4959 	   73.3100 	    3.0000 	    6.0000 	   48.8758 
    0.4349 	   73.3820 	    3.0000 	    6.0000 	   48.9118 
    0.4044 	   73.4560 	    3.0000 	    6.0000 	   48.9488 
    0.4349 	   73.5340 	    3.0000 	    6.0000 	   48.9878 
    0.4501 	   73.6080 	    3.0000 	    6.0000 	   49.0248 
    0.3586 	   73.6780 	    3.0000 	    6.0000 	   49.0598 
    0.4044 	   73.7580 	    3.0000 	    6.0000 	   49.0998 
    0.4807 	   73.8340 	    3.0000 	    6.0000 	   49.1378 
    0.5264 	   73.9040 	    3.0000 	    6.0000 	   49.1728 
    0.5112 	   73.9800 	    3.0000 	    6.0000 	   49.2108 
    0.6485 	   74.0560 	    3.0000 	    6.0000 	   49.2488 
    0.4501 	   74.1320 	    3.0000 	    6.0000 	   49.2868 
    0.5875 	   74.2140 	    3.0000 	    6.0000 	   49.3278 
    0.3738 	   74.2920 	    3.0000 	    6.0000 	   49.3668 
    0.4501 	   74.3660 	    3.0000 	    6.0000 	   49.4038 
    0.3891 	   74.4420 	    3.0000 	    6.0000 	   49.4418 
    0.4654 	   74.5160 	    3.0000 	    6.0000 	   49.4788 
    0.3738 	   74.5880 	    3.0000 	    6.0000 	   49.5148 
    0.5570 	   74.6600 	    3.0000 	    6.0000 	   49.5508 
    0.3738 	   74.7280 	    3.0000 	    6.0000 	   49.5848 
    0.3891 	   74.7980 	    3.0000 	    6.0000 	   49.6198 
    0.4501 	   74.8680 	    3.0000 	    6.0000 	   49.6548 
    0.3281 	   74.9340 	    3.0000 	    6.0000 	   49.6878 
    0.5417 	   75.0020 	    3.0000 	    6.0000 	   49.7218 
    0.5417 	   75.0720 	    3.0000 	    6.0000 	   49.7568 
    0.4501 	   75.1500 	    3.0000 	    6.0000 	   49.7958 
    0.5264 	   75.2260 	    3.0000 	    6.0000 	   49.8338 
    0.4196 	   75.3020 	    3.0000 	    6.0000 	   49.8718 
    0.3586 	   75.3840 	    3.0000 	    6.0000 	   49.9128 
    0.4501 	   75.4560 	    3.0000 	    6.0000 	   49.9489 
    0.3738 	   75.5320 	    3.0000 	    6.0000 	   49.9869 
    0.4654 	   75.6060 	    3.0000 	    6.0000 	   50.0239 
    0.4044 	   75.6800 	    3.0000 	    6.0000 	   50.0609 
    0.5264 	   75.7520 	    3.0000 	    6.0000 	   50.0969 
    0.5417 	   75.8260 	    3.0000 	    6.0000 	   50.1339 
    0.4501 	   75.9000 	    3.0000 	    6.0000 	   50.1709 
    0.3433 	   75.9780 	    3.0000 	    6.0000 	   50.2099 
    0.4044 	   76.0480 	    3.0000 	    6.0000 	   50.2449 
    0.5875 	   76.1220 	    3.0000 	    6.0000 	   50.2819 
    0.5722 	   76.2040 	    3.0000 	    6.0000 	   50.3229 
    0.3891 	   76.2800 	    3.0000 	    6.0000 	   50.3609 
    0.5570 	   76.3540 	    3.0000 	    6.0000 	   50.3979 
    0.3433 	   76.4300 	    3.0000 	    6.0000 	   50.4359 
    0.3433 	   76.5060 	    3.0000 	    6.0000 	   50.4739 
    0.3586 	   76.5780 	    3.0000 	    6.0000 	   50.5099 
    0.2213 	   76.6460 	    3.0000 	    6.0000 	   50.5439 
    0.4654 	   76.7160 	    3.0000 	    6.0000 	   50.5789 
    0.4044 	   76.7840 	    3.0000 	    6.0000 	   50.6129 
    0.4349 	   76.8500 	    3.0000 	    6.0000 	   50.6459 
    0.4349 	   76.9200 	    3.0000 	    6.0000 	   50.6809 
    0.4349 	   76.9880 	    3.0000 	    6.0000 	   50.7149 
    0.4959 	   77.0520 	    3.0000 	    6.0000 	   50.7469 
    0.2518 	   77.1200 	    3.0000 	    6.0000 	   50.7809 
    0.3128 	   77.1940 	    3.0000 	    6.0000 	   50.8179 
    0.4959 	   77.2700 	    3.0000 	    6.0000 	   50.8559 
    0.4501 	   77.3440 	    3.0000 	    6.0000 	   50.8929 
    0.5570 	   77.4200 	    3.0000 	    6.0000 	   50.9309 
    0.4044 	   77.4960 	    3.0000 	    6.0000 	   50.9689 
    0.4349 	   77.5720 	    3.0000 	    6.0000 	   51.0069 
    0.4349 	   77.6480 	    3.0000 	    6.0000 	   51.0449 
    0.3891 	   77.7180 	    3.0000 	    6.0000 	   51.0799 
    0.3586 	   77.7960 	    3.0000 	    6.0000 	   51.1189 
    0.4349 	   77.8700 	    3.0000 	    6.0000 	   51.1559 
    0.4959 	   77.9420 	    3.0000 	    6.0000 	   51.1909 
    0.4501 	   78.0160 	    3.0000 	    6.0000 	   51.2289 
    0.3891 	   78.0860 	    3.0000 	    6.0000 	   51.2639 
    0.5112 	   78.1640 	    3.0000 	    6.0000 	   51.3029 
    0.4807 	   78.2300 	    3.0000 	    6.0000 	   51.3359 
    0.4807 	   78.3020 	    3.0000 	    6.0000 	   51.3719 
    0.4349 	   78.3760 	    3.0000 	    6.0000 	   51.4089 
    0.4196 	   78.4540 	    3.0000 	    6.0000 	   51.4479 
    0.6332 	   78.5280 	    3.0000 	    6.0000 	   51.4849 
    0.4959 	   78.6000 	    3.0000 	    6.0000 	   51.5209 
    0.3738 	   78.6740 	    3.0000 	    6.0000 	   51.5579 
    0.4044 	   78.7520 	    3.0000 	    6.0000 	   51.5969 
    0.3433 	   78.8220 	    3.0000 	    6.0000 	   51.6320 
    0.4654 	   78.8920 	    3.0000 	    6.0000 	   51.6670 
    0.5570 	   78.9660 	    3.0000 	    6.0000 	   51.7040 
    0.3433 	   79.0320 	    3.0000 	    6.0000 	   51.7370 
    0.5112 	   79.0980 	    3.0000 	    6.0000 	   51.7700 
    0.4959 	   79.1740 	    3.0000 	    6.0000 	   51.8080 
    0.4807 	   79.2540 	    3.0000 	    6.0000 	   51.8480 
    0.1450 	   79.3320 	    3.0000 	    6.0000 	   51.8870 
    0.4349 	   79.4060 	    3.0000 	    6.0000 	   51.9240 
    0.6332 	   79.4820 	    3.0000 	    6.0000 	   51.9620 
    0.3891 	   79.5580 	    3.0000 	    6.0000 	   52.0000 
    0.4044 	   79.6360 	    3.0000 	    6.0000 	   52.0390 
    0.3433 	   79.7100 	    3.0000 	    6.0000 	   52.0760 
    0.4349 	   79.7860 	    3.0000 	    6.0000 	   52.1140 
    0.5417 	   79.8640 	    3.0000 	    6.0000 	   52.1530 
    0.4654 	   79.9440 	    3.0000 	    6.0000 	   52.1930 
    0.4349 	   80.0220 	    3.0000 	    6.0000 	   52.2320 
    0.4196 	   80.0980 	    3.0000 	    6.0000 	   52.2700 
    0.3281 	   80.1800 	    3.0000 	    6.0000 	   52.3110 
    0.4196 	   80.2520 	    3.0000 	    6.0000 	   52.3470 
    0.5417 	   80.3320 	    3.0000 	    6.0000 	   52.3870 
    0.4654 	   80.4100 	    3.0000 	    6.0000 	   52.4260 
    0.3738 	   80.4860 	    3.0000 	    6.0000 	   52.4640 
    0.5417 	   80.5580 	    3.0000 	    6.0000 	   52.5000 
    0.4196 	   80.6320 	    3.0000 	    6.0000 	   52.5370 
    0.3281 	   80.7020 	    3.0000 	    6.0000 	   52.5720 
    0.4196 	   80.7740 	    3.0000 	    6.0000 	   52.6080 
    0.5570 	   80.8480 	    3.0000 	    6.0000 	   52.6450 
    0.5264 	   80.9240 	    3.0000 	    6.0000 	   52.6830 
    0.4349 	   80.9900 	    3.0000 	    6.0000 	   52.7160 
    0.4044 	   81.0540 	    3.0000 	    6.0000 	   52.7480 
    0.2518 	   81.1220 	    3.0000 	    6.0000 	   52.7820 
    0.5112 	   81.1920 	    3.0000 	    6.0000 	   52.8160 
    0.4196 	   81.2700 	    3.0000 	    6.0000 	   52.8550 
    0.3128 	   81.3480 	    3.0000 	    6.0000 	   52.8940 
    0.3281 	   81.4240 	    3.0000 	    6.0000 	   52.9320 
    0.4196 	   81.5000 	    3.0000 	    6.0000 	   52.9700 
    0.3891 	   81.5760 	    3.0000 	    6.0000 	   53.0080 
    0.3738 	   81.6520 	    3.0000 	    6.0000 	   53.0460 
    0.6790 	   81.7280 	    3.0000 	    6.0000 	   53.0840 
    0.3128 	   81.8060 	    3.0000 	    6.0000 	   53.1230 
    0.3281 	   81.8800 	    3.0000 	    6.0000 	   53.1600 
    0.4044 	   81.9540 	    3.0000 	    6.0000 	   53.1970 
    0.4196 	   82.0300 	    3.0000 	    6.0000 	   53.2350 
    0.5112 	   82.1020 	    3.0000 	    6.0000 	   53.2710 
    0.4349 	   82.1900 	    3.0000 	    6.0000 	   53.3150 
    0.4807 	   82.2680 	    3.0000 	    6.0000 	   53.3540 
    0.4044 	   82.3400 	    3.0000 	    6.0000 	   53.3900 
    0.3891 	   82.4140 	    3.0000 	    6.0000 	   53.4271 
    0.4807 	   82.4900 	    3.0000 	    6.0000 	   53.4651 
    0.4654 	   82.5640 	    3.0000 	    6.0000 	   53.5021 
    0.3433 	   82.6360 	    3.0000 	    6.0000 	   53.5381 
    0.4654 	   82.7060 	    3.0000 	    6.0000 	   53.5731 
    0.3891 	   82.7800 	    3.0000 	    6.0000 	   53.6101 
    0.4959 	   82.8520 	    3.0000 	    6.0000 	   53.6461 
    0.3281 	   82.9220 	    3.0000 	    6.0000 	   53.6811 
    0.4807 	   82.9920 	    3.0000 	    6.0000 	   53.7151 
    0.4807 	   83.0560 	    3.0000 	    6.0000 	   53.7481 
    0.4349 	   83.1260 	    3.0000 	    6.0000 	   53.7831 
    0.5112 	   83.1980 	    3.0000 	    6.0000 	   53.8191 
    0.4349 	   83.2740 	    3.0000 	    6.0000 	   53.8571 
    0.4196 	   83.3540 	    3.0000 	    6.0000 	   53.8971 
    0.4959 	   83.4280 	    3.0000 	    6.0000 	   53.9341 
    0.4959 	   83.5100 	    3.0000 	    6.0000 	   53.9751 
    0.5264 	   83.5860 	    3.0000 	    6.0000 	   54.0131 
    0.2976 	   83.6600 	    3.0000 	    6.0000 	   54.0501 
    0.3433 	   83.7340 	    3.0000 	    6.0000 	   54.0871 
    0.4501 	   83.8060 	    3.0000 	    6.0000 	   54.1231 
    0.4044 	   83.8780 	    3.0000 	    6.0000 	   54.1591 
    0.3891 	   83.9480 	    3.0000 	    6.0000 	   54.1941 
    0.3891 	   84.0160 	    3.0000 	    6.0000 	   54.2281 
    0.3738 	   84.0900 	    3.0000 	    6.0000 	   54.2651 
    0.5112 	   84.1760 	    3.0000 	    6.0000 	   54.3081 
    0.4959 	   84.2560 	    3.0000 	    6.0000 	   54.3481 
    0.2823 	   84.3320 	    3.0000 	    6.0000 	   54.3861 
    0.2976 	   84.4100 	    3.0000 	    6.0000 	   54.4251 
    0.3586 	   84.4860 	    3.0000 	    6.0000 	   54.4631 
    0.4501 	   84.5620 	    3.0000 	    6.0000 	   54.5011 
    0.4654 	   84.6380 	    3.0000 	    6.0000 	   54.5391 
    0.3891 	   84.7100 	    3.0000 	    6.0000 	   54.5751 
    0.2670 	   84.7820 	    3.0000 	    6.0000 	   54.6111 
    0.3738 	   84.8540 	    3.0000 	    6.0000 	   54.6471 
    0.2976 	   84.9240 	    3.0000 	    6.0000 	   54.6821 
    0.3281 	   84.9960 	    3.0000 	    6.0000 	   54.7181 
    0.3891 	   85.0600 	    3.0000 	    6.0000 	   54.7501 
    0.3586 	   85.1300 	    3.0000 	    6.0000 	   54.7851 
    0.4349 	   85.2040 	    3.0000 	    6.0000 	   54.8221 
    0.4349 	   85.2780 	    3.0000 	    6.0000 	   54.8591 
    0.4044 	   85.3540 	    3.0000 	    6.0000 	   54.8971 
    0.4044 	   85.4300 	    3.0000 	    6.0000 	   54.9351 
    0.3433 	   85.5040 	    3.0000 	    6.0000 	   54.9721 
    0.4501 	   85.5800 	    3.0000 	    6.0000 	   55.0101 
    0.4501 	   85.6580 	    3.0000 	    6.0000 	   55.0491 
    0.3738 	   85.7400 	    3.0000 	    6.0000 	   55.0901 
    0.4349 	   85.8120 	    3.0000 	    6.0000 	   55.1261 
    0.4349 	   85.8880 	    3.0000 	    6.0000 	   55.1642 
    0.4654 	   85.9600 	    3.0000 	    6.0000 	   55.2002 
    0.5112 	   86.0420 	    3.0000 	    6.0000 	   55.2412 
    0.3586 	   86.1160 	    3.0000 	    6.0000 	   55.2782 
    0.4349 	   86.1960 	    3.0000 	    6.0000 	   55.3182 
    0.2670 	   86.2700 	    3.0000 	    6.0000 	   55.3552 
    0.3281 	   86.3440 	    3.0000 	    6.0000 	   55.3922 
    0.2976 	   86.4180 	    3.0000 	    6.0000 	   55.4292 
    0.4959 	   86.4920 	    3.0000 	    6.0000 	   55.4662 
    0.3433 	   86.5640 	    3.0000 	    6.0000 	   55.5022 
    0.4044 	   86.6340 	    3.0000 	    6.0000 	   55.5372 
    0.3128 	   86.7020 	    3.0000 	    6.0000 	   55.5712 
    0.4654 	   86.7740 	    3.0000 	    6.0000 	   55.6072 
    0.4501 	   86.8420 	    3.0000 	    6.0000 	   55.6412 
    0.5722 	   86.9120 	    3.0000 	    6.0000 	   55.6762 
    0.3891 	   86.9900 	    3.0000 	    6.0000 	   55.7152 
    0.5112 	   87.0560 	    3.0000 	    6.0000 	   55.7482 
    0.4501 	   87.1240 	    3.0000 	    6.0000 	   55.7822 
    0.4807 	   87.1920 	    3.0000 	    6.0000 	   55.8162 
    0.3738 	   87.2680 	    3.0000 	    6.0000 	   55.8542 
    0.4654 	   87.3480 	    3.0000 	    6.0000 	   55.8942 
    0.3891 	   87.4280 	    3.0000 	    6.0000 	   55.9342 
    0.3128 	   87.5060 	    3.0000 	    6.0000 	   55.9732 
    0.2976 	   87.5820 	    3.0000 	    6.0000 	   56.0112 
    0.5264 	   87.6580 	    3.0000 	    6.0000 	   56.0492 
    0.3281 	   87.7400 	    3.0000 	    6.0000 	   56.0902 
    0.4349 	   87.8180 	    3.0000 	    6.0000 	   56.1292 
    0.4349 	   87.8880 	    3.0000 	    6.0000 	   56.1642 
    0.4959 	   87.9600 	    3.0000 	    6.0000 	   56.2002 
    0.4501 	   88.0300 	    3.0000 	    6.0000 	   56.2352 
    0.3891 	   88.0980 	    3.0000 	    6.0000 	   56.2692 
    0.3128 	   88.1740 	    3.0000 	    6.0000 	   56.3072 
    0.3738 	   88.2420 	    3.0000 	    6.0000 	   56.3412 
    0.1450 	   88.3100 	    3.0000 	    6.0000 	   56.3752 
    0.3128 	   88.3800 	    3.0000 	    6.0000 	   56.4102 
    0.3128 	   88.4480 	    3.0000 	    6.0000 	   56.4442 
    0.3738 	   88.5180 	    3.0000 	    6.0000 	   56.4792 
    0.0076 	   88.5880 	    3.0000 	    6.0000 	   56.5142 
    0.2976 	   88.6600 	    3.0000 	    6.0000 	   56.5502 
    0.0687 	   88.7300 	    3.0000 	    6.0000 	   56.5852 
    0.4044 	   88.8020 	    3.0000 	    6.0000 	   56.6212 
    0.3891 	   88.8720 	    3.0000 	    6.0000 	   56.6562 
    0.3891 	   88.9440 	    3.0000 	    6.0000 	   56.6922 
    0.3738 	   89.0200 	    3.0000 	    6.0000 	   56.7302 
    0.3891 	   89.0860 	    3.0000 	    6.0000 	   56.7632 
    0.2823 	   89.1540 	    3.0000 	    6.0000 	   56.7972 
    0.3586 	   89.2340 	    3.0000 	    6.0000 	   56.8372 
    0.2518 	   89.3100 	    3.0000 	    6.0000 	   56.8752 
    0.4196 	   89.3840 	    3.0000 	    6.0000 	   56.9123 
    0.5570 	   89.4640 	    3.0000 	    6.0000 	   56.9523 
    0.3128 	   89.5380 	    3.0000 	    6.0000 	   56.9893 
    0.4807 	   89.6120 	    3.0000 	    6.0000 	   57.0263 
    0.3281 	   89.6840 	    3.0000 	    6.0000 	   57.0623 
    0.2823 	   89.7560 	    3.0000 	    6.0000 	   57.0983 
    0.3738 	   89.8320 	    3.0000 	    6.0000 	   57.1363 
    0.4501 	   89.9080 	    3.0000 	    6.0000 	   57.1743 
    0.5570 	   89.9800 	    3.0000 	    6.0000 	   57.2103 
    0.0992 	   90.0580 	    3.0000 	    6.0000 	   57.2493 
    0.4196 	   90.1340 	    3.0000 	    6.0000 	   57.2873 
    0.5112 	   90.2220 	    3.0000 	    6.0000 	   57.3303 
    0.5417 	   90.2980 	    3.0000 	    6.0000 	   57.3693 
    0.3891 	   90.3780 	    3.0000 	    6.0000 	   57.4093 
    0.3128 	   90.4540 	    3.0000 	    6.0000 	   57.4473 
    0.4959 	   90.5300 	    3.0000 	    6.0000 	   57.4853 
    0.3738 	   90.6080 	    3.0000 	    6.0000 	   57.5243 
    0.4044 	   90.6800 	    3.0000 	    6.0000 	   57.5603 
    0.6027 	   90.7520 	    3.0000 	    6.0000 	   57.5963 
    0.1144 	   90.8300 	    3.0000 	    6.0000 	   57.6353 
    0.5417 	   90.9020 	    3.0000 	    6.0000 	   57.6713 
    0.3738 	   90.9780 	    3.0000 	    6.0000 	   57.7093 
    0.1297 	   91.0500 	    3.0000 	    6.0000 	   57.7453 
    0.4349 	   91.1200 	    3.0000 	    6.0000 	   57.7803 
    0.4196 	   91.1920 	    3.0000 	    6.0000 	   57.8163 
    0.5417 	   91.2700 	    3.0000 	    6.0000 	   57.8553 
    0.5112 	   91.3500 	    3.0000 	    6.0000 	   57.8953 
    0.4349 	   91.4240 	    3.0000 	    6.0000 	   57.9323 
    0.3586 	   91.4980 	    3.0000 	    6.0000 	   57.9693 
    0.2976 	   91.5680 	    3.0000 	    6.0000 	   58.0043 
    0.4349 	   91.6400 	    3.0000 	    6.0000 	   58.0403 
    0.2976 	   91.7140 	    3.0000 	    6.0000 	   58.0773 
    0.5570 	   91.7860 	    3.0000 	    6.0000 	   58.1133 
    0.3586 	   91.8620 	    3.0000 	    6.0000 	   58.1513 
    0.4654 	   91.9320 	    3.0000 	    6.0000 	   58.1863 
    0.4196 	   92.0020 	    3.0000 	    6.0000 	   58.2213 
    0.3738 	   92.0820 	    3.0000 	    6.0000 	   58.2613 
    0.5722 	   92.1700 	    3.0000 	    6.0000 	   58.3053 
    0.4349 	   92.2500 	    3.0000 	    6.0000 	   58.3453 
    0.4501 	   92.3280 	    3.0000 	    6.0000 	   58.3843 
    0.4349 	   92.4040 	    3.0000 	    6.0000 	   58.4223 
    0.3433 	   92.4860 	    3.0000 	    6.0000 	   58.4633 
    0.4349 	   92.5700 	    3.0000 	    6.0000 	   58.5053 
    0.4044 	   92.6460 	    3.0000 	    6.0000 	   58.5433 
    0.2518 	   92.7200 	    3.0000 	    6.0000 	   58.5803 
    0.4044 	   92.7920 	    3.0000 	    6.0000 	   58.6163 
    0.2365 	   92.8680 	    3.0000 	    6.0000 	   58.6544 
    0.2976 	   92.9380 	    3.0000 	    6.0000 	   58.6894 
    0.4196 	   93.0080 	    3.0000 	    6.0000 	   58.7244 
    0.3891 	   93.0760 	    3.0000 	    6.0000 	   58.7584 
    0.3586 	   93.1480 	    3.0000 	    6.0000 	   58.7944 
    0.3433 	   93.2160 	    3.0000 	    6.0000 	   58.8284 
    0.5112 	   93.2880 	    3.0000 	    6.0000 	   58.8644 
    0.3433 	   93.3580 	    3.0000 	    6.0000 	   58.8994 
    0.2060 	   93.4300 	    3.0000 	    6.0000 	   58.9354 
    0.3891 	   93.4980 	    3.0000 	    6.0000 	   58.9694 
    0.4959 	   93.5700 	    3.0000 	    6.0000 	   59.0054 
    0.2976 	   93.6480 	    3.0000 	    6.0000 	   59.0444 
    0.3433 	   93.7260 	    3.0000 	    6.0000 	   59.0834 
    0.3738 	   93.8040 	    3.0000 	    6.0000 	   59.1224 
    0.4959 	   93.8840 	    3.0000 	    6.0000 	   59.1624 
    0.4807 	   93.9600 	    3.0000 	    6.0000 	   59.2004 
    0.3891 	   94.0380 	    3.0000 	    6.0000 	   59.2394 
    0.1297 	   94.1160 	    3.0000 	    6.0000 	   59.2784 
    0.2213 	   94.2020 	    3.0000 	    6.0000 	   59.3214 
    0.3433 	   94.2820 	    3.0000 	    6.0000 	   59.3614 
    0.2518 	   94.3600 	    3.0000 	    6.0000 	   59.4004 
    0.3586 	   94.4340 	    3.0000 	    6.0000 	   59.4374 
    0.0839 	   94.5140 	    3.0000 	    6.0000 	   59.4774 
    0.3738 	   94.5880 	    3.0000 	    6.0000 	   59.5144 
    0.2976 	   94.6660 	    3.0000 	    6.0000 	   59.5534 
    0.3281 	   94.7400 	    3.0000 	    6.0000 	   59.5904 
    0.4044 	   94.8120 	    3.0000 	    6.0000 	   59.6264 
    0.4044 	   94.8840 	    3.0000 	    6.0000 	   59.6624 
    0.3891 	   94.9580 	    3.0000 	    6.0000 	   59.6994 
    0.4044 	   95.0300 	    3.0000 	    6.0000 	   59.7354 
    0.3891 	   95.0980 	    3.0000 	    6.0000 	   59.7694 
    0.4501 	   95.1640 	    3.0000 	    6.0000 	   59.8024 
    0.4501 	   95.2400 	    3.0000 	    6.0000 	   59.8404 
    0.3128 	   95.3200 	    3.0000 	    6.0000 	   59.8804 
    0.4196 	   95.4020 	    3.0000 	    6.0000 	   59.9214 
    0.2976 	   95.4800 	    3.0000 	    6.0000 	   59.9604 
    0.2060 	   95.5600 	    3.0000 	    7.0000 	    0.0004 
    0.3738 	   95.6380 	    3.0000 	    7.0000 	    0.0394 
    0.3738 	   95.7160 	    3.0000 	    7.0000 	    0.0784 
    0.3586 	   95.7920 	    3.0000 	    7.0000 	    0.1164 
    0.3586 	   95.8720 	    3.0000 	    7.0000 	    0.1564 
    0.2518 	   95.9480 	    3.0000 	    7.0000 	    0.1944 
    0.3586 	   96.0240 	    3.0000 	    7.0000 	    0.2324 
    0.3738 	   96.1020 	    3.0000 	    7.0000 	    0.2714 
    0.4959 	   96.1800 	    3.0000 	    7.0000 	    0.3104 
    0.3891 	   96.2600 	    3.0000 	    7.0000 	    0.3504 
    0.4044 	   96.3400 	    3.0000 	    7.0000 	    0.3905 
    0.3738 	   96.4180 	    3.0000 	    7.0000 	    0.4295 
    0.3738 	   96.4980 	    3.0000 	    7.0000 	    0.4695 
    0.3891 	   96.5740 	    3.0000 	    7.0000 	    0.5075 
    0.3586 	   96.6520 	    3.0000 	    7.0000 	    0.5465 
    0.3433 	   96.7260 	    3.0000 	    7.0000 	    0.5835 
    0.3738 	   96.8040 	    3.0000 	    7.0000 	    0.6225 
    0.3128 	   96.8800 	    3.0000 	    7.0000 	    0.6605 
    0.4349 	   96.9520 	    3.0000 	    7.0000 	    0.6965 
    0.3738 	   97.0260 	    3.0000 	    7.0000 	    0.7335 
    0.2976 	   97.0940 	    3.0000 	    7.0000 	    0.7675 
    0.2365 	   97.1660 	    3.0000 	    7.0000 	    0.8035 
    0.4349 	   97.2460 	    3.0000 	    7.0000 	    0.8435 
    0.3281 	   97.3200 	    3.0000 	    7.0000 	    0.8805 
    0.4044 	   97.4040 	    3.0000 	    7.0000 	    0.9225 
    0.3281 	   97.4840 	    3.0000 	    7.0000 	    0.9625 
    0.3738 	   97.5620 	    3.0000 	    7.0000 	    1.0015 
    0.3433 	   97.6420 	    3.0000 	    7.0000 	    1.0415 
    0.4349 	   97.7220 	    3.0000 	    7.0000 	    1.0815 
    0.1602 	   97.8060 	    3.0000 	    7.0000 	    1.1235 
    0.3738 	   97.8820 	    3.0000 	    7.0000 	    1.1615 
    0.3128 	   97.9580 	    3.0000 	    7.0000 	    1.1995 
    0.4044 	   98.0360 	    3.0000 	    7.0000 	    1.2385 
    0.3738 	   98.1180 	    3.0000 	    7.0000 	    1.2795 
    0.3128 	   98.2040 	    3.0000 	    7.0000 	    1.3225 
    0.4349 	   98.2840 	    3.0000 	    7.0000 	    1.3625 
    0.2670 	   98.3560 	    3.0000 	    7.0000 	    1.3985 
    0.3891 	   98.4280 	    3.0000 	    7.0000 	    1.4345 
    0.2365 	   98.5000 	    3.0000 	    7.0000 	    1.4705 
    0.3586 	   98.5720 	    3.0000 	    7.0000 	    1.5065 
    0.4654 	   98.6440 	    3.0000 	    7.0000 	    1.5425 
    0.3738 	   98.7160 	    3.0000 	    7.0000 	    1.5785 
    0.5417 	   98.7880 	    3.0000 	    7.0000 	    1.6145 
    0.4501 	   98.8640 	    3.0000 	    7.0000 	    1.6525 
    0.3586 	   98.9380 	    3.0000 	    7.0000 	    1.6895 
    0.2976 	   99.0140 	    3.0000 	    7.0000 	    1.7275 
    0.4349 	   99.0820 	    3.0000 	    7.0000 	    1.7615 
    0.3281 	   99.1500 	    3.0000 	    7.0000 	    1.7955 
    0.2518 	   99.2180 	    3.0000 	    7.0000 	    1.8295 
    0.4959 	   99.2940 	    3.0000 	    7.0000 	    1.8675 
    0.4654 	   99.3760 	    3.0000 	    7.0000 	    1.9085 
    0.4654 	   99.4560 	    3.0000 	    7.0000 	    1.9485 
    0.2976 	   99.5300 	    3.0000 	    7.0000 	    1.9855 
    0.1907 	   99.6120 	    3.0000 	    7.0000 	    2.0265 
    0.3128 	   99.6900 	    3.0000 	    7.0000 	    2.0655 
    0.3281 	   99.7680 	    3.0000 	    7.0000 	    2.1045 
    0.3738 	   99.8500 	    3.0000 	    7.0000 	    2.1456 
    0.3891 	   99.9240 	    3.0000 	    7.0000 	    2.1826 
    0.3433 	  100.0000 	    3.0000 	    7.0000 	    2.2206 
    0.3891 	  100.0800 	    3.0000 	    7.0000 	    2.2606 
    0.3891 	  100.1580 	    3.0000 	    7.0000 	    2.2996 
    0.3738 	  100.2300 	    3.0000 	    7.0000 	    2.3356 
    0.2976 	  100.3040 	    3.0000 	    7.0000 	    2.3726 
    0.5112 	  100.3780 	    3.0000 	    7.0000 	    2.4096 
    0.3281 	  100.4460 	    3.0000 	    7.0000 	    2.4436 
    0.2976 	  100.5160 	    3.0000 	    7.0000 	    2.4786 
    0.3281 	  100.5900 	    3.0000 	    7.0000 	    2.5156 
    0.1602 	  100.6620 	    3.0000 	    7.0000 	    2.5516 
    0.4044 	  100.7380 	    3.0000 	    7.0000 	    2.5896 
    0.4349 	  100.8080 	    3.0000 	    7.0000 	    2.6246 
    0.3128 	  100.8820 	    3.0000 	    7.0000 	    2.6616 
    0.0534 	  100.9540 	    3.0000 	    7.0000 	    2.6976 
    0.3128 	  101.0300 	    3.0000 	    7.0000 	    2.7356 
    0.3281 	  101.1000 	    3.0000 	    7.0000 	    2.7706 
    0.4196 	  101.1700 	    3.0000 	    7.0000 	    2.8056 
    0.3433 	  101.2420 	    3.0000 	    7.0000 	    2.8416 
    0.2976 	  101.3220 	    3.0000 	    7.0000 	    2.8816 
    0.4501 	  101.4040 	    3.0000 	    7.0000 	    2.9226 
    0.4349 	  101.4840 	    3.0000 	    7.0000 	    2.9626 
    0.2976 	  101.5600 	    3.0000 	    7.0000 	    3.0006 
    0.3738 	  101.6380 	    3.0000 	    7.0000 	    3.0396 
    0.2976 	  101.7180 	    3.0000 	    7.0000 	    3.0796 
    0.4196 	  101.8000 	    3.0000 	    7.0000 	    3.1206 
    0.3128 	  101.8800 	    3.0000 	    7.0000 	    3.1606 
    0.1450 	  101.9560 	    3.0000 	    7.0000 	    3.1986 
    0.3281 	  102.0300 	    3.0000 	    7.0000 	    3.2356 
    0.2976 	  102.1020 	    3.0000 	    7.0000 	    3.2716 
    0.4349 	  102.1860 	    3.0000 	    7.0000 	    3.3136 
    0.3586 	  102.2660 	    3.0000 	    7.0000 	    3.3536 
    0.4501 	  102.3460 	    3.0000 	    7.0000 	    3.3936 
    0.2518 	  102.4220 	    3.0000 	    7.0000 	    3.4316 
    0.3281 	  102.5060 	    3.0000 	    7.0000 	    3.4736 
    0.3738 	  102.5820 	    3.0000 	    7.0000 	    3.5116 
    0.1755 	  102.6520 	    3.0000 	    7.0000 	    3.5466 
    0.2670 	  102.7260 	    3.0000 	    7.0000 	    3.5836 
    0.3586 	  102.7980 	    3.0000 	    7.0000 	    3.6196 
    0.1602 	  102.8720 	    3.0000 	    7.0000 	    3.6566 
    0.4349 	  102.9500 	    3.0000 	    7.0000 	    3.6956 
    0.3281 	  103.0220 	    3.0000 	    7.0000 	    3.7316 
    0.4044 	  103.0940 	    3.0000 	    7.0000 	    3.7676 
   -0.0076 	  103.1680 	    3.0000 	    7.0000 	    3.8046 
    0.2823 	  103.2480 	    3.0000 	    7.0000 	    3.8446 
    0.4654 	  103.4240 	    3.0000 	    7.0000 	    3.9327 
    0.3586 	  103.5040 	    3.0000 	    7.0000 	    3.9727 
    0.4349 	  103.5840 	    3.0000 	    7.0000 	    4.0127 
    0.4807 	  103.6660 	    3.0000 	    7.0000 	    4.0537 
    0.2976 	  103.7420 	    3.0000 	    7.0000 	    4.0917 
    0.1907 	  103.8220 	    3.0000 	    7.0000 	    4.1317 
    0.2670 	  103.9000 	    3.0000 	    7.0000 	    4.1707 
    0.2823 	  103.9800 	    3.0000 	    7.0000 	    4.2107 
    0.4349 	  104.0560 	    3.0000 	    7.0000 	    4.2487 
    0.2976 	  104.1380 	    3.0000 	    7.0000 	    4.2897 
    0.3433 	  104.2240 	    3.0000 	    7.0000 	    4.3327 
    0.0229 	  104.3020 	    3.0000 	    7.0000 	    4.3717 
    0.3128 	  104.3860 	    3.0000 	    7.0000 	    4.4137 
    0.2976 	  104.4600 	    3.0000 	    7.0000 	    4.4507 
    0.3433 	  104.5400 	    3.0000 	    7.0000 	    4.4907 
    0.4044 	  104.6160 	    3.0000 	    7.0000 	    4.5287 
    0.4807 	  104.6900 	    3.0000 	    7.0000 	    4.5657 
    0.2976 	  104.7660 	    3.0000 	    7.0000 	    4.6037 
    0.3433 	  104.8400 	    3.0000 	    7.0000 	    4.6407 
    0.1907 	  104.9140 	    3.0000 	    7.0000 	    4.6777 
    0.1602 	  104.9860 	    3.0000 	    7.0000 	    4.7137 
    0.2365 	  105.0580 	    3.0000 	    7.0000 	    4.7497 
    0.4654 	  105.1280 	    3.0000 	    7.0000 	    4.7847 
    0.4654 	  105.2080 	    3.0000 	    7.0000 	    4.8247 
    0.3738 	  105.2820 	    3.0000 	    7.0000 	    4.8617 
    0.3586 	  105.3580 	    3.0000 	    7.0000 	    4.8997 
    0.3433 	  105.4400 	    3.0000 	    7.0000 	    4.9407 
    0.4807 	  105.5220 	    3.0000 	    7.0000 	    4.9817 
    0.3586 	  105.6060 	    3.0000 	    7.0000 	    5.0237 
    0.1450 	  105.6840 	    3.0000 	    7.0000 	    5.0627 
    0.2670 	  105.7620 	    3.0000 	    7.0000 	    5.1017 
    0.3128 	  105.8340 	    3.0000 	    7.0000 	    5.1377 
    0.3891 	  105.9080 	    3.0000 	    7.0000 	    5.1747 
    0.2518 	  105.9780 	    3.0000 	    7.0000 	    5.2097 
    0.2823 	  106.0500 	    3.0000 	    7.0000 	    5.2457 
    0.2976 	  106.1240 	    3.0000 	    7.0000 	    5.2827 
    0.2213 	  106.1960 	    3.0000 	    7.0000 	    5.3187 
    0.2823 	  106.2680 	    3.0000 	    7.0000 	    5.3547 
    0.2976 	  106.3400 	    3.0000 	    7.0000 	    5.3907 
    0.2365 	  106.4100 	    3.0000 	    7.0000 	    5.4257 
    0.2670 	  106.4820 	    3.0000 	    7.0000 	    5.4617 
    0.2976 	  106.5540 	    3.0000 	    7.0000 	    5.4977 
    0.3128 	  106.6260 	    3.0000 	    7.0000 	    5.5337 
    0.2976 	  106.6960 	    3.0000 	    7.0000 	    5.5687 
    0.2823 	  106.7700 	    3.0000 	    7.0000 	    5.6057 
    0.3433 	  106.8400 	    3.0000 	    7.0000 	    5.6408 
    0.3891 	  106.9120 	    3.0000 	    7.0000 	    5.6768 
    0.3586 	  106.9840 	    3.0000 	    7.0000 	    5.7128 
    0.3738 	  107.0540 	    3.0000 	    7.0000 	    5.7478 
    0.2976 	  107.1240 	    3.0000 	    7.0000 	    5.7828 
    0.2060 	  107.1940 	    3.0000 	    7.0000 	    5.8178 
    0.3128 	  107.2660 	    3.0000 	    7.0000 	    5.8538 
    0.3128 	  107.3400 	    3.0000 	    7.0000 	    5.8908 
    0.4196 	  107.4180 	    3.0000 	    7.0000 	    5.9298 
    0.4349 	  107.4960 	    3.0000 	    7.0000 	    5.9688 
    0.3586 	  107.5780 	    3.0000 	    7.0000 	    6.0098 
    0.3281 	  107.6560 	    3.0000 	    7.0000 	    6.0488 
    0.2670 	  107.7500 	    3.0000 	    7.0000 	    6.0958 
    0.2823 	  107.8280 	    3.0000 	    7.0000 	    6.1348 
    0.3586 	  107.9040 	    3.0000 	    7.0000 	    6.1728 
    0.2976 	  107.9820 	    3.0000 	    7.0000 	    6.2118 
    0.4044 	  108.0600 	    3.0000 	    7.0000 	    6.2508 
    0.3433 	  108.1380 	    3.0000 	    7.0000 	    6.2898 
    0.3281 	  108.2160 	    3.0000 	    7.0000 	    6.3288 
    0.2976 	  108.2920 	    3.0000 	    7.0000 	    6.3668 
    0.3128 	  108.3720 	    3.0000 	    7.0000 	    6.4068 
    0.3433 	  108.4500 	    3.0000 	    7.0000 	    6.4458 
    0.3128 	  108.5280 	    3.0000 	    7.0000 	    6.4848 
    0.3281 	  108.6080 	    3.0000 	    7.0000 	    6.5248 
    0.2518 	  108.6860 	    3.0000 	    7.0000 	    6.5638 
    0.3281 	  108.7620 	    3.0000 	    7.0000 	    6.6018 
