Thayer School of Engineering        Instron 4442 Mechanical Testing System
7/8/2018 11:00:43 PM

  Force (N)	Extension (mm)	Not Used	Not Used	Not Used	     Hour	    Minute	    Second
    0.4349 	    0.5150 	   23.0000 	    1.0000 	    4.0474 
    0.3891 	    0.5285 	   23.0000 	    1.0000 	    4.0744 
    0.3891 	    0.5610 	   23.0000 	    1.0000 	    4.1394 
    0.2823 	    0.5765 	   23.0000 	    1.0000 	    4.1704 
    0.4044 	    0.5930 	   23.0000 	    1.0000 	    4.2034 
    0.2518 	    0.6205 	   23.0000 	    1.0000 	    4.2584 
    0.3433 	    0.6465 	   23.0000 	    1.0000 	    4.3105 
    0.3433 	    0.6720 	   23.0000 	    1.0000 	    4.3615 
    0.3433 	    0.6990 	   23.0000 	    1.0000 	    4.4155 
    0.2670 	    0.7155 	   23.0000 	    1.0000 	    4.4485 
    0.2060 	    0.7325 	   23.0000 	    1.0000 	    4.4825 
    0.4044 	    0.7615 	   23.0000 	    1.0000 	    4.5405 
    0.4959 	    0.7880 	   23.0000 	    1.0000 	    4.5935 
    0.3281 	    0.8135 	   23.0000 	    1.0000 	    4.6445 
    0.2823 	    0.8400 	   23.0000 	    1.0000 	    4.6975 
    0.3738 	    0.8695 	   23.0000 	    1.0000 	    4.7565 
    0.2365 	    0.8845 	   23.0000 	    1.0000 	    4.7865 
    0.2213 	    0.9155 	   23.0000 	    1.0000 	    4.8485 
    0.2518 	    0.9425 	   23.0000 	    1.0000 	    4.9025 
    0.2976 	    0.9685 	   23.0000 	    1.0000 	    4.9545 
    0.2976 	    0.9965 	   23.0000 	    1.0000 	    5.0105 
    0.4196 	    1.0235 	   23.0000 	    1.0000 	    5.0645 
    0.4196 	    1.0400 	   23.0000 	    1.0000 	    5.0975 
    0.3128 	    1.0710 	   23.0000 	    1.0000 	    5.1595 
    0.4044 	    1.0875 	   23.0000 	    1.0000 	    5.1925 
    0.3281 	    1.1170 	   23.0000 	    1.0000 	    5.2515 
    0.3738 	    1.1455 	   23.0000 	    1.0000 	    5.3085 
    0.4044 	    1.1715 	   23.0000 	    1.0000 	    5.3605 
    0.2060 	    1.2005 	   23.0000 	    1.0000 	    5.4185 
    0.2823 	    1.2155 	   23.0000 	    1.0000 	    5.4485 
    0.4501 	    1.2440 	   23.0000 	    1.0000 	    5.5055 
    0.3281 	    1.2700 	   23.0000 	    1.0000 	    5.5575 
    0.3281 	    1.2965 	   23.0000 	    1.0000 	    5.6105 
    0.2823 	    1.3225 	   23.0000 	    1.0000 	    5.6625 
    0.4349 	    1.3395 	   23.0000 	    1.0000 	    5.6965 
    0.4196 	    1.3555 	   23.0000 	    1.0000 	    5.7285 
    0.4196 	    1.3835 	   23.0000 	    1.0000 	    5.7845 
    0.3738 	    1.3990 	   23.0000 	    1.0000 	    5.8155 
    0.2976 	    1.4150 	   23.0000 	    1.0000 	    5.8475 
    0.1450 	    1.4305 	   23.0000 	    1.0000 	    5.8785 
    0.3586 	    1.4585 	   23.0000 	    1.0000 	    5.9345 
    0.4196 	    1.4850 	   23.0000 	    1.0000 	    5.9875 
    0.2976 	    1.5120 	   23.0000 	    1.0000 	    6.0416 
    0.3128 	    1.5395 	   23.0000 	    1.0000 	    6.0966 
    0.3891 	    1.5660 	   23.0000 	    1.0000 	    6.1496 
    0.5264 	    1.5825 	   23.0000 	    1.0000 	    6.1826 
    0.3586 	    1.5985 	   23.0000 	    1.0000 	    6.2146 
    0.3433 	    1.6270 	   23.0000 	    1.0000 	    6.2716 
    0.3738 	    1.6435 	   23.0000 	    1.0000 	    6.3046 
    0.2365 	    1.6595 	   23.0000 	    1.0000 	    6.3366 
    0.4044 	    1.6750 	   23.0000 	    1.0000 	    6.3676 
    0.3433 	    1.6905 	   23.0000 	    1.0000 	    6.3986 
    0.4501 	    1.7070 	   23.0000 	    1.0000 	    6.4316 
    0.3281 	    1.7240 	   23.0000 	    1.0000 	    6.4656 
    0.3433 	    1.7410 	   23.0000 	    1.0000 	    6.4996 
    0.3891 	    1.7580 	   23.0000 	    1.0000 	    6.5336 
    0.4044 	    1.7760 	   23.0000 	    1.0000 	    6.5696 
    0.4044 	    1.7915 	   23.0000 	    1.0000 	    6.6006 
    0.4196 	    1.8075 	   23.0000 	    1.0000 	    6.6326 
    0.4807 	    1.8240 	   23.0000 	    1.0000 	    6.6656 
    0.3738 	    1.8405 	   23.0000 	    1.0000 	    6.6986 
    0.3433 	    1.8580 	   23.0000 	    1.0000 	    6.7336 
    0.3891 	    1.8735 	   23.0000 	    1.0000 	    6.7646 
    0.2976 	    1.8900 	   23.0000 	    1.0000 	    6.7976 
    0.2823 	    1.9055 	   23.0000 	    1.0000 	    6.8286 
    0.3738 	    1.9215 	   23.0000 	    1.0000 	    6.8606 
    0.2976 	    1.9380 	   23.0000 	    1.0000 	    6.8936 
    0.2823 	    1.9540 	   23.0000 	    1.0000 	    6.9256 
    0.4654 	    1.9695 	   23.0000 	    1.0000 	    6.9566 
    0.4349 	    1.9860 	   23.0000 	    1.0000 	    6.9896 
    0.4349 	    2.0025 	   23.0000 	    1.0000 	    7.0226 
    0.4196 	    2.0180 	   23.0000 	    1.0000 	    7.0536 
    0.2823 	    2.0340 	   23.0000 	    1.0000 	    7.0856 
    0.5722 	    2.0490 	   23.0000 	    1.0000 	    7.1156 
    0.2823 	    2.0655 	   23.0000 	    1.0000 	    7.1486 
    0.0839 	    2.0820 	   23.0000 	    1.0000 	    7.1816 
    0.4349 	    2.0985 	   23.0000 	    1.0000 	    7.2146 
    0.3891 	    2.1280 	   23.0000 	    1.0000 	    7.2736 
    0.2670 	    2.1425 	   23.0000 	    1.0000 	    7.3026 
    0.2823 	    2.1600 	   23.0000 	    1.0000 	    7.3376 
    0.4196 	    2.1750 	   23.0000 	    1.0000 	    7.3676 
    0.1602 	    2.1890 	   23.0000 	    1.0000 	    7.3956 
    0.3281 	    2.2030 	   23.0000 	    1.0000 	    7.4236 
    0.1907 	    2.2190 	   23.0000 	    1.0000 	    7.4556 
    0.3433 	    2.2350 	   23.0000 	    1.0000 	    7.4876 
    0.3891 	    2.2485 	   23.0000 	    1.0000 	    7.5146 
    0.3281 	    2.2630 	   23.0000 	    1.0000 	    7.5436 
    0.4654 	    2.2795 	   23.0000 	    1.0000 	    7.5766 
    0.2976 	    2.2950 	   23.0000 	    1.0000 	    7.6076 
    0.5722 	    2.3095 	   23.0000 	    1.0000 	    7.6366 
    0.3433 	    2.3260 	   23.0000 	    1.0000 	    7.6696 
    0.3738 	    2.3430 	   23.0000 	    1.0000 	    7.7036 
    0.4501 	    2.3595 	   23.0000 	    1.0000 	    7.7366 
    0.3738 	    2.3770 	   23.0000 	    1.0000 	    7.7716 
    0.2976 	    2.3920 	   23.0000 	    1.0000 	    7.8017 
    0.3281 	    2.4075 	   23.0000 	    1.0000 	    7.8327 
    0.3891 	    2.4245 	   23.0000 	    1.0000 	    7.8667 
    0.3281 	    2.4415 	   23.0000 	    1.0000 	    7.9007 
    0.4044 	    2.4575 	   23.0000 	    1.0000 	    7.9327 
    0.5570 	    2.4735 	   23.0000 	    1.0000 	    7.9647 
    0.3586 	    2.4880 	   23.0000 	    1.0000 	    7.9937 
    0.4959 	    2.5045 	   23.0000 	    1.0000 	    8.0267 
    0.5112 	    2.5210 	   23.0000 	    1.0000 	    8.0597 
    0.3433 	    2.5375 	   23.0000 	    1.0000 	    8.0927 
    0.3128 	    2.5535 	   23.0000 	    1.0000 	    8.1247 
    0.3433 	    2.5695 	   23.0000 	    1.0000 	    8.1567 
    0.3738 	    2.5860 	   23.0000 	    1.0000 	    8.1897 
    0.4349 	    2.6005 	   23.0000 	    1.0000 	    8.2187 
    0.3586 	    2.6170 	   23.0000 	    1.0000 	    8.2517 
    0.4654 	    2.6340 	   23.0000 	    1.0000 	    8.2857 
    0.3738 	    2.6490 	   23.0000 	    1.0000 	    8.3157 
    0.3586 	    2.6660 	   23.0000 	    1.0000 	    8.3497 
    0.4807 	    2.6815 	   23.0000 	    1.0000 	    8.3807 
    0.4349 	    2.6975 	   23.0000 	    1.0000 	    8.4127 
    0.4654 	    2.7135 	   23.0000 	    1.0000 	    8.4447 
    0.5722 	    2.7285 	   23.0000 	    1.0000 	    8.4747 
    0.2823 	    2.7445 	   23.0000 	    1.0000 	    8.5067 
    0.4196 	    2.7595 	   23.0000 	    1.0000 	    8.5367 
    0.0992 	    2.7740 	   23.0000 	    1.0000 	    8.5657 
    0.3738 	    2.7905 	   23.0000 	    1.0000 	    8.5987 
    0.3433 	    2.8055 	   23.0000 	    1.0000 	    8.6287 
    0.3891 	    2.8210 	   23.0000 	    1.0000 	    8.6597 
    0.4501 	    2.8370 	   23.0000 	    1.0000 	    8.6917 
    0.4349 	    2.8520 	   23.0000 	    1.0000 	    8.7217 
    0.3128 	    2.8670 	   23.0000 	    1.0000 	    8.7517 
    0.3586 	    2.8830 	   23.0000 	    1.0000 	    8.7837 
    0.3738 	    2.8980 	   23.0000 	    1.0000 	    8.8137 
    0.2976 	    2.9130 	   23.0000 	    1.0000 	    8.8427 
    0.1907 	    2.9280 	   23.0000 	    1.0000 	    8.8727 
    0.3738 	    2.9445 	   23.0000 	    1.0000 	    8.9057 
    0.5417 	    2.9600 	   23.0000 	    1.0000 	    8.9367 
    0.4044 	    2.9750 	   23.0000 	    1.0000 	    8.9667 
    0.3738 	    2.9915 	   23.0000 	    1.0000 	    8.9987 
    0.2823 	    3.0065 	   23.0000 	    1.0000 	    9.0297 
    0.4196 	    3.0215 	   23.0000 	    1.0000 	    9.0597 
    0.3891 	    3.0380 	   23.0000 	    1.0000 	    9.0927 
    0.3891 	    3.0535 	   23.0000 	    1.0000 	    9.1237 
    0.3738 	    3.0680 	   23.0000 	    1.0000 	    9.1527 
    0.3586 	    3.0850 	   23.0000 	    1.0000 	    9.1867 
    0.3738 	    3.1005 	   23.0000 	    1.0000 	    9.2177 
    0.3433 	    3.1165 	   23.0000 	    1.0000 	    9.2497 
    0.3586 	    3.1335 	   23.0000 	    1.0000 	    9.2837 
    0.3891 	    3.1505 	   23.0000 	    1.0000 	    9.3177 
    0.3738 	    3.1660 	   23.0000 	    1.0000 	    9.3487 
    0.3586 	    3.1830 	   23.0000 	    1.0000 	    9.3827 
    0.5264 	    3.1990 	   23.0000 	    1.0000 	    9.4147 
    0.4501 	    3.2135 	   23.0000 	    1.0000 	    9.4437 
    0.4044 	    3.2290 	   23.0000 	    1.0000 	    9.4747 
    0.4959 	    3.2455 	   23.0000 	    1.0000 	    9.5077 
    0.5112 	    3.2610 	   23.0000 	    1.0000 	    9.5387 
    0.5264 	    3.2765 	   23.0000 	    1.0000 	    9.5698 
    0.5722 	    3.2930 	   23.0000 	    1.0000 	    9.6028 
    0.4349 	    3.3085 	   23.0000 	    1.0000 	    9.6338 
    0.4959 	    3.3250 	   23.0000 	    1.0000 	    9.6668 
    0.3738 	    3.3420 	   23.0000 	    1.0000 	    9.7008 
    0.4196 	    3.3565 	   23.0000 	    1.0000 	    9.7298 
    0.3891 	    3.3725 	   23.0000 	    1.0000 	    9.7618 
    0.3281 	    3.3890 	   23.0000 	    1.0000 	    9.7948 
    0.3738 	    3.4050 	   23.0000 	    1.0000 	    9.8268 
    0.4807 	    3.4195 	   23.0000 	    1.0000 	    9.8558 
    0.1602 	    3.4365 	   23.0000 	    1.0000 	    9.8898 
    0.3891 	    3.4525 	   23.0000 	    1.0000 	    9.9218 
    0.5112 	    3.4680 	   23.0000 	    1.0000 	    9.9528 
    0.4959 	    3.4845 	   23.0000 	    1.0000 	    9.9858 
    0.2518 	    3.5005 	   23.0000 	    1.0000 	   10.0178 
    0.4501 	    3.5165 	   23.0000 	    1.0000 	   10.0498 
    0.5264 	    3.5335 	   23.0000 	    1.0000 	   10.0838 
    0.4044 	    3.5485 	   23.0000 	    1.0000 	   10.1138 
    0.4196 	    3.5640 	   23.0000 	    1.0000 	   10.1448 
    0.2518 	    3.5790 	   23.0000 	    1.0000 	   10.1748 
    0.5112 	    3.5960 	   23.0000 	    1.0000 	   10.2088 
    0.3281 	    3.6115 	   23.0000 	    1.0000 	   10.2398 
    0.3128 	    3.6265 	   23.0000 	    1.0000 	   10.2698 
    0.5875 	    3.6435 	   23.0000 	    1.0000 	   10.3038 
    0.4044 	    3.6595 	   23.0000 	    1.0000 	   10.3358 
    0.4654 	    3.6740 	   23.0000 	    1.0000 	   10.3648 
    0.3433 	    3.6915 	   23.0000 	    1.0000 	   10.3998 
    0.2823 	    3.7080 	   23.0000 	    1.0000 	   10.4328 
    0.4349 	    3.7235 	   23.0000 	    1.0000 	   10.4638 
    0.5570 	    3.7405 	   23.0000 	    1.0000 	   10.4978 
    0.2518 	    3.7560 	   23.0000 	    1.0000 	   10.5288 
    0.4196 	    3.7715 	   23.0000 	    1.0000 	   10.5598 
    0.4196 	    3.7890 	   23.0000 	    1.0000 	   10.5948 
    0.2976 	    3.8040 	   23.0000 	    1.0000 	   10.6248 
    0.4654 	    3.8195 	   23.0000 	    1.0000 	   10.6558 
    0.4654 	    3.8365 	   23.0000 	    1.0000 	   10.6888 
    0.4349 	    3.8520 	   23.0000 	    1.0000 	   10.7208 
    0.6180 	    3.8680 	   23.0000 	    1.0000 	   10.7528 
    0.4349 	    3.8840 	   23.0000 	    1.0000 	   10.7848 
    0.4654 	    3.9005 	   23.0000 	    1.0000 	   10.8178 
    0.3891 	    3.9165 	   23.0000 	    1.0000 	   10.8498 
    0.4959 	    3.9335 	   23.0000 	    1.0000 	   10.8838 
    0.5112 	    3.9490 	   23.0000 	    1.0000 	   10.9148 
    0.3281 	    3.9650 	   23.0000 	    1.0000 	   10.9468 
    0.4349 	    3.9810 	   23.0000 	    1.0000 	   10.9788 
    0.5112 	    3.9970 	   23.0000 	    1.0000 	   11.0108 
    0.4654 	    4.0130 	   23.0000 	    1.0000 	   11.0428 
    0.2060 	    4.0280 	   23.0000 	    1.0000 	   11.0728 
    0.5264 	    4.0440 	   23.0000 	    1.0000 	   11.1048 
    0.3433 	    4.0600 	   23.0000 	    1.0000 	   11.1368 
    0.4196 	    4.0760 	   23.0000 	    1.0000 	   11.1688 
    0.5875 	    4.0920 	   23.0000 	    1.0000 	   11.2008 
    0.5722 	    4.1070 	   23.0000 	    1.0000 	   11.2308 
    0.5112 	    4.1230 	   23.0000 	    1.0000 	   11.2628 
    0.5875 	    4.1400 	   23.0000 	    1.0000 	   11.2969 
    0.4959 	    4.1555 	   23.0000 	    1.0000 	   11.3279 
    0.3891 	    4.1705 	   23.0000 	    1.0000 	   11.3579 
    0.4196 	    4.1850 	   23.0000 	    1.0000 	   11.3869 
    0.5875 	    4.2005 	   23.0000 	    1.0000 	   11.4179 
    0.4196 	    4.2155 	   23.0000 	    1.0000 	   11.4479 
    0.4044 	    4.2325 	   23.0000 	    1.0000 	   11.4819 
    0.5417 	    4.2485 	   23.0000 	    1.0000 	   11.5139 
    0.5417 	    4.2640 	   23.0000 	    1.0000 	   11.5449 
    0.3738 	    4.2790 	   23.0000 	    1.0000 	   11.5749 
    0.4349 	    4.2950 	   23.0000 	    1.0000 	   11.6069 
    0.3891 	    4.3105 	   23.0000 	    1.0000 	   11.6379 
    0.4654 	    4.3260 	   23.0000 	    1.0000 	   11.6689 
    0.4807 	    4.3435 	   23.0000 	    1.0000 	   11.7039 
    0.5264 	    4.3590 	   23.0000 	    1.0000 	   11.7349 
    0.3433 	    4.3745 	   23.0000 	    1.0000 	   11.7659 
    0.6180 	    4.3905 	   23.0000 	    1.0000 	   11.7979 
    0.4501 	    4.4060 	   23.0000 	    1.0000 	   11.8289 
    0.4196 	    4.4215 	   23.0000 	    1.0000 	   11.8599 
    0.5570 	    4.4395 	   23.0000 	    1.0000 	   11.8959 
    0.3281 	    4.4555 	   23.0000 	    1.0000 	   11.9279 
    0.5875 	    4.4710 	   23.0000 	    1.0000 	   11.9589 
    0.5112 	    4.4865 	   23.0000 	    1.0000 	   11.9899 
    0.3433 	    4.5015 	   23.0000 	    1.0000 	   12.0199 
    0.4807 	    4.5180 	   23.0000 	    1.0000 	   12.0529 
    0.5264 	    4.5365 	   23.0000 	    1.0000 	   12.0899 
    0.2518 	    4.5520 	   23.0000 	    1.0000 	   12.1209 
    0.5570 	    4.5675 	   23.0000 	    1.0000 	   12.1519 
    0.5570 	    4.5840 	   23.0000 	    1.0000 	   12.1849 
    0.4501 	    4.6000 	   23.0000 	    1.0000 	   12.2169 
    0.4501 	    4.6155 	   23.0000 	    1.0000 	   12.2479 
    0.5417 	    4.6325 	   23.0000 	    1.0000 	   12.2819 
    0.5722 	    4.6470 	   23.0000 	    1.0000 	   12.3109 
    0.5417 	    4.6640 	   23.0000 	    1.0000 	   12.3449 
    0.6485 	    4.6785 	   23.0000 	    1.0000 	   12.3739 
    0.2976 	    4.6945 	   23.0000 	    1.0000 	   12.4059 
    0.4654 	    4.7095 	   23.0000 	    1.0000 	   12.4359 
    0.6485 	    4.7245 	   23.0000 	    1.0000 	   12.4659 
    0.4807 	    4.7420 	   23.0000 	    1.0000 	   12.5009 
    0.4501 	    4.7575 	   23.0000 	    1.0000 	   12.5319 
    0.4349 	    4.7730 	   23.0000 	    1.0000 	   12.5629 
    0.4501 	    4.7890 	   23.0000 	    1.0000 	   12.5949 
    0.4959 	    4.8045 	   23.0000 	    1.0000 	   12.6259 
    0.6180 	    4.8200 	   23.0000 	    1.0000 	   12.6569 
    0.5875 	    4.8370 	   23.0000 	    1.0000 	   12.6909 
    0.4654 	    4.8530 	   23.0000 	    1.0000 	   12.7229 
    0.5875 	    4.8675 	   23.0000 	    1.0000 	   12.7519 
    0.5722 	    4.8835 	   23.0000 	    1.0000 	   12.7839 
    0.6943 	    4.8990 	   23.0000 	    1.0000 	   12.8149 
    0.5264 	    4.9150 	   23.0000 	    1.0000 	   12.8469 
    0.4654 	    4.9310 	   23.0000 	    1.0000 	   12.8779 
    0.3433 	    4.9470 	   23.0000 	    1.0000 	   12.9109 
    0.2823 	    4.9625 	   23.0000 	    1.0000 	   12.9419 
    0.5112 	    4.9780 	   23.0000 	    1.0000 	   12.9729 
    0.6180 	    4.9945 	   23.0000 	    1.0000 	   13.0059 
    0.4959 	    5.0095 	   23.0000 	    1.0000 	   13.0359 
    0.5570 	    5.0265 	   23.0000 	    1.0000 	   13.0700 
    0.4959 	    5.0435 	   23.0000 	    1.0000 	   13.1040 
    0.5417 	    5.0595 	   23.0000 	    1.0000 	   13.1360 
    0.6180 	    5.0760 	   23.0000 	    1.0000 	   13.1690 
    0.4501 	    5.0920 	   23.0000 	    1.0000 	   13.2010 
    0.5112 	    5.1080 	   23.0000 	    1.0000 	   13.2330 
    0.5722 	    5.1250 	   23.0000 	    1.0000 	   13.2670 
    0.4959 	    5.1415 	   23.0000 	    1.0000 	   13.3000 
    0.5417 	    5.1585 	   23.0000 	    1.0000 	   13.3340 
    0.5570 	    5.1740 	   23.0000 	    1.0000 	   13.3650 
    0.5570 	    5.1895 	   23.0000 	    1.0000 	   13.3960 
    0.5570 	    5.2050 	   23.0000 	    1.0000 	   13.4270 
    0.5875 	    5.2210 	   23.0000 	    1.0000 	   13.4590 
    0.4959 	    5.2380 	   23.0000 	    1.0000 	   13.4930 
    0.4959 	    5.2535 	   23.0000 	    1.0000 	   13.5240 
    0.6638 	    5.2690 	   23.0000 	    1.0000 	   13.5550 
    0.5417 	    5.2850 	   23.0000 	    1.0000 	   13.5870 
    0.5570 	    5.3010 	   23.0000 	    1.0000 	   13.6190 
    0.5417 	    5.3210 	   23.0000 	    1.0000 	   13.6590 
    0.4807 	    5.3395 	   23.0000 	    1.0000 	   13.6960 
    0.5570 	    5.3555 	   23.0000 	    1.0000 	   13.7280 
    0.6180 	    5.3715 	   23.0000 	    1.0000 	   13.7600 
    0.5417 	    5.3865 	   23.0000 	    1.0000 	   13.7900 
    0.4044 	    5.4030 	   23.0000 	    1.0000 	   13.8230 
    0.6180 	    5.4190 	   23.0000 	    1.0000 	   13.8550 
    0.6332 	    5.4360 	   23.0000 	    1.0000 	   13.8890 
    0.6027 	    5.4520 	   23.0000 	    1.0000 	   13.9210 
    0.6790 	    5.4690 	   23.0000 	    1.0000 	   13.9550 
    0.4501 	    5.4845 	   23.0000 	    1.0000 	   13.9860 
    0.5875 	    5.5010 	   23.0000 	    1.0000 	   14.0190 
    0.6180 	    5.5165 	   23.0000 	    1.0000 	   14.0500 
    0.5570 	    5.5335 	   23.0000 	    1.0000 	   14.0840 
    0.5417 	    5.5490 	   23.0000 	    1.0000 	   14.1150 
    0.3891 	    5.5650 	   23.0000 	    1.0000 	   14.1470 
    0.5417 	    5.5800 	   23.0000 	    1.0000 	   14.1770 
    0.6180 	    5.5955 	   23.0000 	    1.0000 	   14.2080 
    0.7248 	    5.6100 	   23.0000 	    1.0000 	   14.2370 
    0.6943 	    5.6260 	   23.0000 	    1.0000 	   14.2690 
    0.7248 	    5.6565 	   23.0000 	    1.0000 	   14.3300 
    0.6485 	    5.6710 	   23.0000 	    1.0000 	   14.3590 
    0.5570 	    5.6880 	   23.0000 	    1.0000 	   14.3930 
    0.6485 	    5.7035 	   23.0000 	    1.0000 	   14.4240 
    0.6790 	    5.7190 	   23.0000 	    1.0000 	   14.4550 
    0.6485 	    5.7370 	   23.0000 	    1.0000 	   14.4910 
    0.6638 	    5.7520 	   23.0000 	    1.0000 	   14.5210 
    0.4349 	    5.7680 	   23.0000 	    1.0000 	   14.5530 
    0.5417 	    5.7830 	   23.0000 	    1.0000 	   14.5830 
    0.5722 	    5.7990 	   23.0000 	    1.0000 	   14.6150 
    0.6180 	    5.8150 	   23.0000 	    1.0000 	   14.6470 
    0.4501 	    5.8305 	   23.0000 	    1.0000 	   14.6780 
    0.7401 	    5.8470 	   23.0000 	    1.0000 	   14.7110 
    0.4044 	    5.8630 	   23.0000 	    1.0000 	   14.7430 
    0.3738 	    5.8780 	   23.0000 	    1.0000 	   14.7730 
    0.5875 	    5.8935 	   23.0000 	    1.0000 	   14.8041 
    0.6332 	    5.9100 	   23.0000 	    1.0000 	   14.8371 
    0.6180 	    5.9250 	   23.0000 	    1.0000 	   14.8671 
    0.6180 	    5.9415 	   23.0000 	    1.0000 	   14.9001 
    0.6332 	    5.9580 	   23.0000 	    1.0000 	   14.9331 
    0.8316 	    5.9740 	   23.0000 	    1.0000 	   14.9651 
    0.2823 	    5.9905 	   23.0000 	    1.0000 	   14.9981 
    0.7401 	    6.0080 	   23.0000 	    1.0000 	   15.0331 
    0.6332 	    6.0240 	   23.0000 	    1.0000 	   15.0651 
    0.8011 	    6.0415 	   23.0000 	    1.0000 	   15.1001 
    0.6790 	    6.0570 	   23.0000 	    1.0000 	   15.1311 
    0.5570 	    6.0730 	   23.0000 	    1.0000 	   15.1631 
    0.3891 	    6.0890 	   23.0000 	    1.0000 	   15.1951 
    0.6485 	    6.1055 	   23.0000 	    1.0000 	   15.2281 
    0.6332 	    6.1205 	   23.0000 	    1.0000 	   15.2581 
    0.6485 	    6.1385 	   23.0000 	    1.0000 	   15.2941 
    0.6027 	    6.1535 	   23.0000 	    1.0000 	   15.3241 
    0.6180 	    6.1695 	   23.0000 	    1.0000 	   15.3561 
    0.3586 	    6.1855 	   23.0000 	    1.0000 	   15.3881 
    0.6790 	    6.2010 	   23.0000 	    1.0000 	   15.4191 
    0.5722 	    6.2165 	   23.0000 	    1.0000 	   15.4501 
    0.8316 	    6.2335 	   23.0000 	    1.0000 	   15.4841 
    0.6027 	    6.2500 	   23.0000 	    1.0000 	   15.5171 
    0.7401 	    6.2665 	   23.0000 	    1.0000 	   15.5501 
    0.7248 	    6.2820 	   23.0000 	    1.0000 	   15.5811 
    0.7706 	    6.2975 	   23.0000 	    1.0000 	   15.6121 
    0.5875 	    6.3135 	   23.0000 	    1.0000 	   15.6441 
    0.5875 	    6.3285 	   23.0000 	    1.0000 	   15.6741 
    0.6485 	    6.3440 	   23.0000 	    1.0000 	   15.7051 
    0.5722 	    6.3585 	   23.0000 	    1.0000 	   15.7341 
    0.6027 	    6.3740 	   23.0000 	    1.0000 	   15.7651 
    0.8011 	    6.3900 	   23.0000 	    1.0000 	   15.7971 
    0.7248 	    6.4045 	   23.0000 	    1.0000 	   15.8261 
    0.6332 	    6.4205 	   23.0000 	    1.0000 	   15.8581 
    0.6790 	    6.4375 	   23.0000 	    1.0000 	   15.8921 
    0.6180 	    6.4535 	   23.0000 	    1.0000 	   15.9241 
    0.6943 	    6.4685 	   23.0000 	    1.0000 	   15.9541 
    0.5264 	    6.4860 	   23.0000 	    1.0000 	   15.9891 
    0.6485 	    6.5015 	   23.0000 	    1.0000 	   16.0201 
    0.6790 	    6.5180 	   23.0000 	    1.0000 	   16.0531 
    0.6180 	    6.5335 	   23.0000 	    1.0000 	   16.0841 
    0.7858 	    6.5495 	   23.0000 	    1.0000 	   16.1161 
    0.8621 	    6.5655 	   23.0000 	    1.0000 	   16.1481 
    0.6180 	    6.5805 	   23.0000 	    1.0000 	   16.1781 
    0.5417 	    6.5965 	   23.0000 	    1.0000 	   16.2101 
    0.6485 	    6.6120 	   23.0000 	    1.0000 	   16.2411 
    0.6332 	    6.6280 	   23.0000 	    1.0000 	   16.2731 
    0.6180 	    6.6450 	   23.0000 	    1.0000 	   16.3071 
    0.8011 	    6.6605 	   23.0000 	    1.0000 	   16.3381 
    0.7095 	    6.6775 	   23.0000 	    1.0000 	   16.3721 
    0.7248 	    6.6940 	   23.0000 	    1.0000 	   16.4051 
    0.6332 	    6.7100 	   23.0000 	    1.0000 	   16.4371 
    0.6180 	    6.7265 	   23.0000 	    1.0000 	   16.4701 
    0.5875 	    6.7425 	   23.0000 	    1.0000 	   16.5021 
    0.5264 	    6.7585 	   23.0000 	    1.0000 	   16.5341 
    0.6485 	    6.7740 	   23.0000 	    1.0000 	   16.5652 
    0.6638 	    6.7890 	   23.0000 	    1.0000 	   16.5952 
    0.7401 	    6.8045 	   23.0000 	    1.0000 	   16.6262 
    0.6943 	    6.8215 	   23.0000 	    1.0000 	   16.6602 
    0.5875 	    6.8385 	   23.0000 	    1.0000 	   16.6942 
    0.7553 	    6.8545 	   23.0000 	    1.0000 	   16.7262 
    0.8164 	    6.8695 	   23.0000 	    1.0000 	   16.7562 
    0.6790 	    6.8855 	   23.0000 	    1.0000 	   16.7882 
    0.6332 	    6.9020 	   23.0000 	    1.0000 	   16.8212 
    0.7401 	    6.9170 	   23.0000 	    1.0000 	   16.8512 
    0.6332 	    6.9340 	   23.0000 	    1.0000 	   16.8852 
    0.6943 	    6.9500 	   23.0000 	    1.0000 	   16.9172 
    0.6332 	    6.9660 	   23.0000 	    1.0000 	   16.9492 
    0.6943 	    6.9840 	   23.0000 	    1.0000 	   16.9852 
    0.7858 	    7.0000 	   23.0000 	    1.0000 	   17.0172 
    0.5264 	    7.0160 	   23.0000 	    1.0000 	   17.0492 
    0.7248 	    7.0330 	   23.0000 	    1.0000 	   17.0832 
    0.6638 	    7.0485 	   23.0000 	    1.0000 	   17.1142 
    0.6027 	    7.0640 	   23.0000 	    1.0000 	   17.1452 
    0.6943 	    7.0795 	   23.0000 	    1.0000 	   17.1762 
    0.5875 	    7.0960 	   23.0000 	    1.0000 	   17.2092 
    0.6332 	    7.1125 	   23.0000 	    1.0000 	   17.2422 
    0.6638 	    7.1275 	   23.0000 	    1.0000 	   17.2722 
    0.6332 	    7.1450 	   23.0000 	    1.0000 	   17.3072 
    0.6638 	    7.1610 	   23.0000 	    1.0000 	   17.3392 
    0.6943 	    7.1765 	   23.0000 	    1.0000 	   17.3702 
    0.6943 	    7.1920 	   23.0000 	    1.0000 	   17.4012 
    0.7401 	    7.2075 	   23.0000 	    1.0000 	   17.4322 
    0.8774 	    7.2225 	   23.0000 	    1.0000 	   17.4622 
    0.5875 	    7.2405 	   23.0000 	    1.0000 	   17.4982 
    0.7401 	    7.2555 	   23.0000 	    1.0000 	   17.5282 
    0.7401 	    7.2695 	   23.0000 	    1.0000 	   17.5562 
    0.7401 	    7.2855 	   23.0000 	    1.0000 	   17.5882 
    0.6790 	    7.3010 	   23.0000 	    1.0000 	   17.6192 
    0.8774 	    7.3205 	   23.0000 	    1.0000 	   17.6582 
    0.6943 	    7.3370 	   23.0000 	    1.0000 	   17.6912 
    0.6790 	    7.3535 	   23.0000 	    1.0000 	   17.7242 
    0.8316 	    7.3700 	   23.0000 	    1.0000 	   17.7572 
    0.8316 	    7.3865 	   23.0000 	    1.0000 	   17.7902 
    0.7095 	    7.4025 	   23.0000 	    1.0000 	   17.8222 
    0.5417 	    7.4200 	   23.0000 	    1.0000 	   17.8572 
    0.7248 	    7.4370 	   23.0000 	    1.0000 	   17.8912 
    0.6485 	    7.4525 	   23.0000 	    1.0000 	   17.9222 
    0.7553 	    7.4680 	   23.0000 	    1.0000 	   17.9532 
    0.6485 	    7.4845 	   23.0000 	    1.0000 	   17.9862 
    0.5722 	    7.5020 	   23.0000 	    1.0000 	   18.0212 
    0.8011 	    7.5175 	   23.0000 	    1.0000 	   18.0522 
    0.5417 	    7.5330 	   23.0000 	    1.0000 	   18.0832 
    0.8011 	    7.5480 	   23.0000 	    1.0000 	   18.1132 
    0.7248 	    7.5645 	   23.0000 	    1.0000 	   18.1462 
    0.9384 	    7.5800 	   23.0000 	    1.0000 	   18.1772 
    0.6638 	    7.5965 	   23.0000 	    1.0000 	   18.2102 
    0.8316 	    7.6130 	   23.0000 	    1.0000 	   18.2432 
    0.7706 	    7.6290 	   23.0000 	    1.0000 	   18.2752 
    0.8011 	    7.6465 	   23.0000 	    1.0000 	   18.3103 
    0.7706 	    7.6635 	   23.0000 	    1.0000 	   18.3443 
    0.7706 	    7.6780 	   23.0000 	    1.0000 	   18.3733 
    0.7095 	    7.6945 	   23.0000 	    1.0000 	   18.4063 
    0.7553 	    7.7100 	   23.0000 	    1.0000 	   18.4373 
    0.7553 	    7.7265 	   23.0000 	    1.0000 	   18.4703 
    0.7248 	    7.7425 	   23.0000 	    1.0000 	   18.5023 
    0.5417 	    7.7595 	   23.0000 	    1.0000 	   18.5363 
    0.8621 	    7.7750 	   23.0000 	    1.0000 	   18.5673 
    0.5722 	    7.7920 	   23.0000 	    1.0000 	   18.6013 
    0.6790 	    7.8085 	   23.0000 	    1.0000 	   18.6343 
    0.7401 	    7.8245 	   23.0000 	    1.0000 	   18.6663 
    0.9232 	    7.8420 	   23.0000 	    1.0000 	   18.7013 
    0.9079 	    7.8580 	   23.0000 	    1.0000 	   18.7333 
    0.9079 	    7.8745 	   23.0000 	    1.0000 	   18.7663 
    0.9842 	    7.8900 	   23.0000 	    1.0000 	   18.7973 
    0.7401 	    7.9055 	   23.0000 	    1.0000 	   18.8283 
    0.7095 	    7.9215 	   23.0000 	    1.0000 	   18.8603 
    0.7706 	    7.9380 	   23.0000 	    1.0000 	   18.8933 
    0.8011 	    7.9535 	   23.0000 	    1.0000 	   18.9243 
    0.7095 	    7.9700 	   23.0000 	    1.0000 	   18.9573 
    0.7706 	    7.9865 	   23.0000 	    1.0000 	   18.9903 
    0.8011 	    8.0025 	   23.0000 	    1.0000 	   19.0223 
    0.7858 	    8.0190 	   23.0000 	    1.0000 	   19.0553 
    0.8316 	    8.0365 	   23.0000 	    1.0000 	   19.0903 
    0.7401 	    8.0525 	   23.0000 	    1.0000 	   19.1223 
    0.6332 	    8.0685 	   23.0000 	    1.0000 	   19.1543 
    0.9232 	    8.0850 	   23.0000 	    1.0000 	   19.1873 
    0.8164 	    8.1010 	   23.0000 	    1.0000 	   19.2193 
    0.5722 	    8.1175 	   23.0000 	    1.0000 	   19.2523 
    0.8927 	    8.1340 	   23.0000 	    1.0000 	   19.2853 
    0.7095 	    8.1500 	   23.0000 	    1.0000 	   19.3173 
    0.9842 	    8.1675 	   23.0000 	    1.0000 	   19.3523 
    0.7401 	    8.1845 	   23.0000 	    1.0000 	   19.3863 
    0.8316 	    8.2015 	   23.0000 	    1.0000 	   19.4203 
    0.8316 	    8.2180 	   23.0000 	    1.0000 	   19.4533 
    0.9232 	    8.2360 	   23.0000 	    1.0000 	   19.4893 
    0.7553 	    8.2525 	   23.0000 	    1.0000 	   19.5223 
    0.7706 	    8.2695 	   23.0000 	    1.0000 	   19.5563 
    0.7095 	    8.2850 	   23.0000 	    1.0000 	   19.5873 
    0.9079 	    8.3020 	   23.0000 	    1.0000 	   19.6213 
    0.5264 	    8.3205 	   23.0000 	    1.0000 	   19.6583 
    0.8469 	    8.3375 	   23.0000 	    1.0000 	   19.6923 
    0.5722 	    8.3530 	   23.0000 	    1.0000 	   19.7233 
    0.7706 	    8.3690 	   23.0000 	    1.0000 	   19.7553 
    0.9079 	    8.3855 	   23.0000 	    1.0000 	   19.7883 
    0.5264 	    8.4020 	   23.0000 	    1.0000 	   19.8213 
    0.9384 	    8.4195 	   23.0000 	    1.0000 	   19.8563 
    0.9384 	    8.4365 	   23.0000 	    1.0000 	   19.8903 
    0.8621 	    8.4540 	   23.0000 	    1.0000 	   19.9253 
    0.7095 	    8.4700 	   23.0000 	    1.0000 	   19.9573 
    0.9842 	    8.4870 	   23.0000 	    1.0000 	   19.9913 
    0.8316 	    8.5025 	   23.0000 	    1.0000 	   20.0224 
    0.8469 	    8.5195 	   23.0000 	    1.0000 	   20.0564 
    1.0452 	    8.5370 	   23.0000 	    1.0000 	   20.0914 
    0.8316 	    8.5535 	   23.0000 	    1.0000 	   20.1244 
    0.8164 	    8.5700 	   23.0000 	    1.0000 	   20.1574 
    0.6027 	    8.5870 	   23.0000 	    1.0000 	   20.1914 
    0.8316 	    8.6035 	   23.0000 	    1.0000 	   20.2244 
    0.8927 	    8.6205 	   23.0000 	    1.0000 	   20.2584 
    0.7553 	    8.6385 	   23.0000 	    1.0000 	   20.2944 
    0.8469 	    8.6550 	   23.0000 	    1.0000 	   20.3274 
    0.6943 	    8.6705 	   23.0000 	    1.0000 	   20.3584 
    0.7858 	    8.6865 	   23.0000 	    1.0000 	   20.3904 
    0.7553 	    8.7030 	   23.0000 	    1.0000 	   20.4234 
    0.8621 	    8.7200 	   23.0000 	    1.0000 	   20.4574 
    0.8316 	    8.7360 	   23.0000 	    1.0000 	   20.4894 
    0.8774 	    8.7515 	   23.0000 	    1.0000 	   20.5204 
    0.7858 	    8.7670 	   23.0000 	    1.0000 	   20.5514 
    0.8316 	    8.7835 	   23.0000 	    1.0000 	   20.5844 
    0.8774 	    8.8000 	   23.0000 	    1.0000 	   20.6174 
    0.9232 	    8.8170 	   23.0000 	    1.0000 	   20.6514 
    0.7401 	    8.8350 	   23.0000 	    1.0000 	   20.6874 
    0.8469 	    8.8515 	   23.0000 	    1.0000 	   20.7204 
    0.9842 	    8.8670 	   23.0000 	    1.0000 	   20.7514 
    0.8164 	    8.8835 	   23.0000 	    1.0000 	   20.7844 
    0.8164 	    8.9005 	   23.0000 	    1.0000 	   20.8184 
    0.7706 	    8.9165 	   23.0000 	    1.0000 	   20.8504 
    0.8011 	    8.9325 	   23.0000 	    1.0000 	   20.8824 
    1.0300 	    8.9485 	   23.0000 	    1.0000 	   20.9144 
    0.9384 	    8.9650 	   23.0000 	    1.0000 	   20.9474 
    0.8774 	    8.9825 	   23.0000 	    1.0000 	   20.9824 
    0.9384 	    8.9985 	   23.0000 	    1.0000 	   21.0144 
    0.6180 	    9.0145 	   23.0000 	    1.0000 	   21.0464 
    0.7553 	    9.0300 	   23.0000 	    1.0000 	   21.0774 
    0.9079 	    9.0485 	   23.0000 	    1.0000 	   21.1144 
    0.7095 	    9.0655 	   23.0000 	    1.0000 	   21.1484 
    0.8621 	    9.0830 	   23.0000 	    1.0000 	   21.1834 
    0.8316 	    9.0990 	   23.0000 	    1.0000 	   21.2154 
    0.8164 	    9.1160 	   23.0000 	    1.0000 	   21.2494 
    0.8927 	    9.1310 	   23.0000 	    1.0000 	   21.2794 
    0.7858 	    9.1475 	   23.0000 	    1.0000 	   21.3124 
    0.8927 	    9.1630 	   23.0000 	    1.0000 	   21.3434 
    0.7553 	    9.1790 	   23.0000 	    1.0000 	   21.3754 
    0.8011 	    9.1960 	   23.0000 	    1.0000 	   21.4094 
    0.9995 	    9.2125 	   23.0000 	    1.0000 	   21.4424 
    0.9384 	    9.2295 	   23.0000 	    1.0000 	   21.4764 
    0.7706 	    9.2480 	   23.0000 	    1.0000 	   21.5134 
    0.9232 	    9.2640 	   23.0000 	    1.0000 	   21.5454 
    0.7858 	    9.2805 	   23.0000 	    1.0000 	   21.5784 
    0.7706 	    9.2965 	   23.0000 	    1.0000 	   21.6104 
    0.8469 	    9.3205 	   23.0000 	    1.0000 	   21.6584 
    0.9995 	    9.3360 	   23.0000 	    1.0000 	   21.6894 
    0.8621 	    9.3535 	   23.0000 	    1.0000 	   21.7244 
    1.0605 	    9.3700 	   23.0000 	    1.0000 	   21.7564 
    0.8164 	    9.3865 	   23.0000 	    1.0000 	   21.7905 
    0.8469 	    9.4020 	   23.0000 	    1.0000 	   21.8215 
    0.8774 	    9.4185 	   23.0000 	    1.0000 	   21.8545 
    0.8927 	    9.4360 	   23.0000 	    1.0000 	   21.8895 
    0.8164 	    9.4525 	   23.0000 	    1.0000 	   21.9225 
    0.8621 	    9.4680 	   23.0000 	    1.0000 	   21.9535 
    1.0605 	    9.4850 	   23.0000 	    1.0000 	   21.9875 
    0.9232 	    9.5020 	   23.0000 	    1.0000 	   22.0215 
    0.7553 	    9.5185 	   23.0000 	    1.0000 	   22.0545 
    0.9384 	    9.5355 	   23.0000 	    1.0000 	   22.0885 
    0.7858 	    9.5520 	   23.0000 	    1.0000 	   22.1205 
    0.9384 	    9.5690 	   23.0000 	    1.0000 	   22.1555 
    0.8469 	    9.5845 	   23.0000 	    1.0000 	   22.1865 
    0.9384 	    9.6000 	   23.0000 	    1.0000 	   22.2175 
    1.0147 	    9.6170 	   23.0000 	    1.0000 	   22.2515 
    0.8774 	    9.6345 	   23.0000 	    1.0000 	   22.2865 
    0.8469 	    9.6505 	   23.0000 	    1.0000 	   22.3185 
    0.8621 	    9.6675 	   23.0000 	    1.0000 	   22.3525 
    0.5722 	    9.6840 	   23.0000 	    1.0000 	   22.3855 
    0.9537 	    9.7010 	   23.0000 	    1.0000 	   22.4195 
    0.9384 	    9.7185 	   23.0000 	    1.0000 	   22.4535 
    0.8621 	    9.7350 	   23.0000 	    1.0000 	   22.4875 
    0.8011 	    9.7520 	   23.0000 	    1.0000 	   22.5215 
    0.8164 	    9.7680 	   23.0000 	    1.0000 	   22.5535 
    0.9384 	    9.7860 	   23.0000 	    1.0000 	   22.5895 
    1.0300 	    9.8015 	   23.0000 	    1.0000 	   22.6205 
    0.9384 	    9.8170 	   23.0000 	    1.0000 	   22.6515 
    0.9384 	    9.8355 	   23.0000 	    1.0000 	   22.6885 
    0.9384 	    9.8525 	   23.0000 	    1.0000 	   22.7225 
    0.9232 	    9.8695 	   23.0000 	    1.0000 	   22.7565 
    0.9232 	    9.8865 	   23.0000 	    1.0000 	   22.7905 
    0.9689 	    9.9035 	   23.0000 	    1.0000 	   22.8245 
    0.9842 	    9.9210 	   23.0000 	    1.0000 	   22.8595 
    0.9384 	    9.9380 	   23.0000 	    1.0000 	   22.8935 
    0.9537 	    9.9555 	   23.0000 	    1.0000 	   22.9285 
    0.8164 	    9.9720 	   23.0000 	    1.0000 	   22.9615 
    0.8164 	    9.9890 	   23.0000 	    1.0000 	   22.9955 
    0.9689 	   10.0055 	   23.0000 	    1.0000 	   23.0285 
    0.9079 	   10.0225 	   23.0000 	    1.0000 	   23.0625 
    0.8774 	   10.0410 	   23.0000 	    1.0000 	   23.0995 
    0.9537 	   10.0565 	   23.0000 	    1.0000 	   23.1305 
    0.9232 	   10.0725 	   23.0000 	    1.0000 	   23.1625 
    1.0300 	   10.0885 	   23.0000 	    1.0000 	   23.1945 
    1.0147 	   10.1050 	   23.0000 	    1.0000 	   23.2275 
    0.9842 	   10.1225 	   23.0000 	    1.0000 	   23.2625 
    0.9842 	   10.1390 	   23.0000 	    1.0000 	   23.2955 
    1.0147 	   10.1560 	   23.0000 	    1.0000 	   23.3295 
    0.8774 	   10.1725 	   23.0000 	    1.0000 	   23.3625 
    1.0605 	   10.1900 	   23.0000 	    1.0000 	   23.3975 
    0.9232 	   10.2070 	   23.0000 	    1.0000 	   23.4315 
    0.9537 	   10.2230 	   23.0000 	    1.0000 	   23.4635 
    0.8621 	   10.2405 	   23.0000 	    1.0000 	   23.4985 
    1.0605 	   10.2570 	   23.0000 	    1.0000 	   23.5316 
    0.9079 	   10.2730 	   23.0000 	    1.0000 	   23.5636 
    0.8469 	   10.2910 	   23.0000 	    1.0000 	   23.5996 
    0.8011 	   10.3070 	   23.0000 	    1.0000 	   23.6316 
    1.0300 	   10.3230 	   23.0000 	    1.0000 	   23.6626 
    0.9079 	   10.3395 	   23.0000 	    1.0000 	   23.6966 
    0.8316 	   10.3550 	   23.0000 	    1.0000 	   23.7276 
    0.9079 	   10.3720 	   23.0000 	    1.0000 	   23.7616 
    0.9384 	   10.3875 	   23.0000 	    1.0000 	   23.7926 
    0.9232 	   10.4045 	   23.0000 	    1.0000 	   23.8266 
    0.7401 	   10.4195 	   23.0000 	    1.0000 	   23.8566 
    0.8774 	   10.4335 	   23.0000 	    1.0000 	   23.8846 
    0.7706 	   10.4485 	   23.0000 	    1.0000 	   23.9146 
    1.0452 	   10.4645 	   23.0000 	    1.0000 	   23.9466 
    0.7706 	   10.4820 	   23.0000 	    1.0000 	   23.9816 
    0.9537 	   10.4980 	   23.0000 	    1.0000 	   24.0136 
    0.9995 	   10.5135 	   23.0000 	    1.0000 	   24.0446 
    1.0300 	   10.5305 	   23.0000 	    1.0000 	   24.0786 
    0.9842 	   10.5485 	   23.0000 	    1.0000 	   24.1146 
    0.9384 	   10.5660 	   23.0000 	    1.0000 	   24.1496 
    0.8621 	   10.5825 	   23.0000 	    1.0000 	   24.1826 
    0.9232 	   10.5980 	   23.0000 	    1.0000 	   24.2136 
    1.0452 	   10.6125 	   23.0000 	    1.0000 	   24.2426 
    0.9384 	   10.6270 	   23.0000 	    1.0000 	   24.2716 
    0.8927 	   10.6440 	   23.0000 	    1.0000 	   24.3056 
    0.9232 	   10.6590 	   23.0000 	    1.0000 	   24.3356 
    0.9842 	   10.6745 	   23.0000 	    1.0000 	   24.3666 
    1.1521 	   10.6910 	   23.0000 	    1.0000 	   24.3996 
    0.9384 	   10.7070 	   23.0000 	    1.0000 	   24.4316 
    1.0605 	   10.7235 	   23.0000 	    1.0000 	   24.4646 
    1.0605 	   10.7395 	   23.0000 	    1.0000 	   24.4966 
    0.8927 	   10.7550 	   23.0000 	    1.0000 	   24.5276 
    0.9537 	   10.7720 	   23.0000 	    1.0000 	   24.5616 
    1.0605 	   10.7895 	   23.0000 	    1.0000 	   24.5966 
    0.8621 	   10.8065 	   23.0000 	    1.0000 	   24.6306 
    0.9689 	   10.8230 	   23.0000 	    1.0000 	   24.6636 
    0.9995 	   10.8420 	   23.0000 	    1.0000 	   24.7016 
    0.8774 	   10.8580 	   23.0000 	    1.0000 	   24.7336 
    0.8927 	   10.8750 	   23.0000 	    1.0000 	   24.7676 
    0.8621 	   10.8910 	   23.0000 	    1.0000 	   24.7996 
    0.9537 	   10.9070 	   23.0000 	    1.0000 	   24.8316 
    0.9689 	   10.9245 	   23.0000 	    1.0000 	   24.8666 
    1.0452 	   10.9415 	   23.0000 	    1.0000 	   24.9006 
    0.8774 	   10.9575 	   23.0000 	    1.0000 	   24.9326 
    0.5875 	   10.9745 	   23.0000 	    1.0000 	   24.9666 
    0.9537 	   10.9910 	   23.0000 	    1.0000 	   24.9996 
    1.0452 	   11.0075 	   23.0000 	    1.0000 	   25.0326 
    0.9537 	   11.0235 	   23.0000 	    1.0000 	   25.0646 
    0.9537 	   11.0420 	   23.0000 	    1.0000 	   25.1016 
    0.9079 	   11.0585 	   23.0000 	    1.0000 	   25.1346 
    0.8621 	   11.0760 	   23.0000 	    1.0000 	   25.1696 
    0.9232 	   11.0925 	   23.0000 	    1.0000 	   25.2026 
    1.1063 	   11.1100 	   23.0000 	    1.0000 	   25.2376 
    0.9232 	   11.1260 	   23.0000 	    1.0000 	   25.2696 
    1.0452 	   11.1445 	   23.0000 	    1.0000 	   25.3067 
    1.0300 	   11.1615 	   23.0000 	    1.0000 	   25.3407 
    1.0300 	   11.1785 	   23.0000 	    1.0000 	   25.3747 
    1.0452 	   11.1955 	   23.0000 	    1.0000 	   25.4087 
    0.9995 	   11.2115 	   23.0000 	    1.0000 	   25.4407 
    1.1063 	   11.2295 	   23.0000 	    1.0000 	   25.4767 
    0.9384 	   11.2480 	   23.0000 	    1.0000 	   25.5137 
    0.7553 	   11.2650 	   23.0000 	    1.0000 	   25.5477 
    0.8011 	   11.2820 	   23.0000 	    1.0000 	   25.5817 
    1.0452 	   11.2980 	   23.0000 	    1.0000 	   25.6137 
    1.0452 	   11.3150 	   23.0000 	    1.0000 	   25.6477 
    1.0147 	   11.3315 	   23.0000 	    1.0000 	   25.6807 
    0.9537 	   11.3485 	   23.0000 	    1.0000 	   25.7147 
    0.9079 	   11.3650 	   23.0000 	    1.0000 	   25.7477 
    0.9995 	   11.3825 	   23.0000 	    1.0000 	   25.7827 
    0.9689 	   11.3995 	   23.0000 	    1.0000 	   25.8167 
    1.1673 	   11.4155 	   23.0000 	    1.0000 	   25.8487 
    0.8927 	   11.4315 	   23.0000 	    1.0000 	   25.8807 
    1.0147 	   11.4490 	   23.0000 	    1.0000 	   25.9157 
    0.9537 	   11.4655 	   23.0000 	    1.0000 	   25.9487 
    0.8316 	   11.4820 	   23.0000 	    1.0000 	   25.9817 
    0.9537 	   11.4990 	   23.0000 	    1.0000 	   26.0157 
    0.9537 	   11.5150 	   23.0000 	    1.0000 	   26.0477 
    1.0910 	   11.5320 	   23.0000 	    1.0000 	   26.0817 
    0.9079 	   11.5480 	   23.0000 	    1.0000 	   26.1137 
    1.0147 	   11.5645 	   23.0000 	    1.0000 	   26.1467 
    1.0910 	   11.5815 	   23.0000 	    1.0000 	   26.1807 
    0.9232 	   11.5980 	   23.0000 	    1.0000 	   26.2137 
    0.9232 	   11.6145 	   23.0000 	    1.0000 	   26.2467 
    1.0452 	   11.6310 	   23.0000 	    1.0000 	   26.2797 
    0.9689 	   11.6505 	   23.0000 	    1.0000 	   26.3177 
    1.1063 	   11.6670 	   23.0000 	    1.0000 	   26.3507 
    0.9537 	   11.6840 	   23.0000 	    1.0000 	   26.3847 
    0.9842 	   11.7010 	   23.0000 	    1.0000 	   26.4187 
    0.9842 	   11.7185 	   23.0000 	    1.0000 	   26.4537 
    1.1215 	   11.7350 	   23.0000 	    1.0000 	   26.4867 
    1.1063 	   11.7525 	   23.0000 	    1.0000 	   26.5217 
    1.0452 	   11.7685 	   23.0000 	    1.0000 	   26.5537 
    1.1368 	   11.7855 	   23.0000 	    1.0000 	   26.5877 
    0.9537 	   11.8020 	   23.0000 	    1.0000 	   26.6207 
    1.0300 	   11.8180 	   23.0000 	    1.0000 	   26.6527 
    1.0300 	   11.8360 	   23.0000 	    1.0000 	   26.6887 
    1.0300 	   11.8540 	   23.0000 	    1.0000 	   26.7247 
    0.9232 	   11.8710 	   23.0000 	    1.0000 	   26.7587 
    1.0605 	   11.8875 	   23.0000 	    1.0000 	   26.7917 
    0.8927 	   11.9045 	   23.0000 	    1.0000 	   26.8257 
    0.9537 	   11.9220 	   23.0000 	    1.0000 	   26.8607 
    0.9537 	   11.9380 	   23.0000 	    1.0000 	   26.8927 
    0.9995 	   11.9555 	   23.0000 	    1.0000 	   26.9277 
    1.0605 	   11.9730 	   23.0000 	    1.0000 	   26.9627 
    0.8011 	   11.9905 	   23.0000 	    1.0000 	   26.9977 
    0.9537 	   12.0065 	   23.0000 	    1.0000 	   27.0298 
    0.8621 	   12.0240 	   23.0000 	    1.0000 	   27.0648 
    1.1521 	   12.0420 	   23.0000 	    1.0000 	   27.1008 
    1.0605 	   12.0590 	   23.0000 	    1.0000 	   27.1348 
    1.1521 	   12.0760 	   23.0000 	    1.0000 	   27.1688 
    0.8621 	   12.0925 	   23.0000 	    1.0000 	   27.2018 
    1.0758 	   12.1090 	   23.0000 	    1.0000 	   27.2348 
    1.1368 	   12.1255 	   23.0000 	    1.0000 	   27.2678 
    0.6638 	   12.1435 	   23.0000 	    1.0000 	   27.3038 
    0.9689 	   12.1600 	   23.0000 	    1.0000 	   27.3368 
    1.0452 	   12.1770 	   23.0000 	    1.0000 	   27.3708 
    0.9079 	   12.1935 	   23.0000 	    1.0000 	   27.4038 
    1.0300 	   12.2110 	   23.0000 	    1.0000 	   27.4388 
    0.8927 	   12.2280 	   23.0000 	    1.0000 	   27.4728 
    1.0452 	   12.2470 	   23.0000 	    1.0000 	   27.5108 
    0.8164 	   12.2640 	   23.0000 	    1.0000 	   27.5448 
    0.9995 	   12.2795 	   23.0000 	    1.0000 	   27.5758 
    0.9689 	   12.2950 	   23.0000 	    1.0000 	   27.6068 
    0.9384 	   12.3120 	   23.0000 	    1.0000 	   27.6408 
    1.0758 	   12.3285 	   23.0000 	    1.0000 	   27.6738 
    0.7858 	   12.3460 	   23.0000 	    1.0000 	   27.7088 
    1.0147 	   12.3620 	   23.0000 	    1.0000 	   27.7408 
    1.0452 	   12.3790 	   23.0000 	    1.0000 	   27.7748 
    0.9232 	   12.3960 	   23.0000 	    1.0000 	   27.8088 
    1.2131 	   12.4125 	   23.0000 	    1.0000 	   27.8418 
    0.9232 	   12.4285 	   23.0000 	    1.0000 	   27.8738 
    0.9537 	   12.4625 	   23.0000 	    1.0000 	   27.9418 
    1.0147 	   12.4790 	   23.0000 	    1.0000 	   27.9748 
    0.9537 	   12.4960 	   23.0000 	    1.0000 	   28.0088 
    1.0910 	   12.5125 	   23.0000 	    1.0000 	   28.0418 
    1.0910 	   12.5295 	   23.0000 	    1.0000 	   28.0758 
    1.0147 	   12.5485 	   23.0000 	    1.0000 	   28.1138 
    1.1673 	   12.5655 	   23.0000 	    1.0000 	   28.1478 
    1.0300 	   12.5830 	   23.0000 	    1.0000 	   28.1828 
    1.0452 	   12.6000 	   23.0000 	    1.0000 	   28.2168 
    1.0300 	   12.6170 	   23.0000 	    1.0000 	   28.2508 
    1.1826 	   12.6335 	   23.0000 	    1.0000 	   28.2838 
    1.0452 	   12.6510 	   23.0000 	    1.0000 	   28.3188 
    0.8316 	   12.6680 	   23.0000 	    1.0000 	   28.3528 
    1.0758 	   12.6850 	   23.0000 	    1.0000 	   28.3868 
    0.8621 	   12.7015 	   23.0000 	    1.0000 	   28.4198 
    1.0910 	   12.7200 	   23.0000 	    1.0000 	   28.4568 
    0.9995 	   12.7370 	   23.0000 	    1.0000 	   28.4908 
    1.0758 	   12.7535 	   23.0000 	    1.0000 	   28.5238 
    0.9995 	   12.7715 	   23.0000 	    1.0000 	   28.5598 
    0.9537 	   12.7900 	   23.0000 	    1.0000 	   28.5968 
    1.0452 	   12.8075 	   23.0000 	    1.0000 	   28.6318 
    1.1368 	   12.8250 	   23.0000 	    1.0000 	   28.6668 
    1.1368 	   12.8415 	   23.0000 	    1.0000 	   28.6998 
    1.1826 	   12.8585 	   23.0000 	    1.0000 	   28.7338 
    0.9995 	   12.8770 	   23.0000 	    1.0000 	   28.7709 
    1.1673 	   12.8940 	   23.0000 	    1.0000 	   28.8049 
    1.0147 	   12.9115 	   23.0000 	    1.0000 	   28.8389 
    1.1215 	   12.9280 	   23.0000 	    1.0000 	   28.8729 
    0.7401 	   12.9460 	   23.0000 	    1.0000 	   28.9089 
    1.0758 	   12.9620 	   23.0000 	    1.0000 	   28.9409 
    0.9537 	   12.9805 	   23.0000 	    1.0000 	   28.9779 
    0.9995 	   12.9985 	   23.0000 	    1.0000 	   29.0139 
    0.8469 	   13.0165 	   23.0000 	    1.0000 	   29.0499 
    0.8621 	   13.0330 	   23.0000 	    1.0000 	   29.0829 
    1.0300 	   13.0525 	   23.0000 	    1.0000 	   29.1219 
    1.0300 	   13.0710 	   23.0000 	    1.0000 	   29.1589 
    1.2436 	   13.0875 	   23.0000 	    1.0000 	   29.1919 
    1.0300 	   13.1050 	   23.0000 	    1.0000 	   29.2269 
    1.1368 	   13.1215 	   23.0000 	    1.0000 	   29.2599 
    1.0452 	   13.1385 	   23.0000 	    1.0000 	   29.2939 
    1.1063 	   13.1545 	   23.0000 	    1.0000 	   29.3259 
    1.0147 	   13.1710 	   23.0000 	    1.0000 	   29.3589 
    1.0758 	   13.1875 	   23.0000 	    1.0000 	   29.3919 
    1.0605 	   13.2050 	   23.0000 	    1.0000 	   29.4269 
    0.8927 	   13.2215 	   23.0000 	    1.0000 	   29.4599 
    1.0758 	   13.2390 	   23.0000 	    1.0000 	   29.4949 
    0.9842 	   13.2555 	   23.0000 	    1.0000 	   29.5279 
    0.9232 	   13.2730 	   23.0000 	    1.0000 	   29.5629 
    1.0147 	   13.2915 	   23.0000 	    1.0000 	   29.5999 
    1.1673 	   13.3080 	   23.0000 	    1.0000 	   29.6329 
    1.0758 	   13.3245 	   23.0000 	    1.0000 	   29.6659 
    0.9842 	   13.3420 	   23.0000 	    1.0000 	   29.7009 
    1.1673 	   13.3595 	   23.0000 	    1.0000 	   29.7359 
    1.0758 	   13.3765 	   23.0000 	    1.0000 	   29.7699 
    1.0605 	   13.3935 	   23.0000 	    1.0000 	   29.8039 
    1.3504 	   13.4105 	   23.0000 	    1.0000 	   29.8379 
    1.2284 	   13.4275 	   23.0000 	    1.0000 	   29.8719 
    1.0758 	   13.4460 	   23.0000 	    1.0000 	   29.9089 
    1.1063 	   13.4630 	   23.0000 	    1.0000 	   29.9429 
    1.1368 	   13.4790 	   23.0000 	    1.0000 	   29.9749 
    1.1978 	   13.4965 	   23.0000 	    1.0000 	   30.0099 
    1.0452 	   13.5130 	   23.0000 	    1.0000 	   30.0429 
    1.1521 	   13.5300 	   23.0000 	    1.0000 	   30.0769 
    1.0910 	   13.5495 	   23.0000 	    1.0000 	   30.1159 
    1.0910 	   13.5660 	   23.0000 	    1.0000 	   30.1489 
    1.1521 	   13.5830 	   23.0000 	    1.0000 	   30.1829 
    0.7858 	   13.6005 	   23.0000 	    1.0000 	   30.2179 
    1.0910 	   13.6170 	   23.0000 	    1.0000 	   30.2509 
    0.8469 	   13.6365 	   23.0000 	    1.0000 	   30.2899 
    1.2894 	   13.6535 	   23.0000 	    1.0000 	   30.3239 
    1.0910 	   13.6700 	   23.0000 	    1.0000 	   30.3569 
    1.1521 	   13.6875 	   23.0000 	    1.0000 	   30.3919 
    1.1063 	   13.7045 	   23.0000 	    1.0000 	   30.4259 
    1.0452 	   13.7215 	   23.0000 	    1.0000 	   30.4599 
    1.1978 	   13.7385 	   23.0000 	    1.0000 	   30.4939 
    1.1368 	   13.7555 	   23.0000 	    1.0000 	   30.5280 
    1.1521 	   13.7730 	   23.0000 	    1.0000 	   30.5630 
    1.0605 	   13.7925 	   23.0000 	    1.0000 	   30.6020 
    1.1215 	   13.8090 	   23.0000 	    1.0000 	   30.6350 
    1.2284 	   13.8260 	   23.0000 	    1.0000 	   30.6690 
    1.1215 	   13.8435 	   23.0000 	    1.0000 	   30.7040 
    1.0300 	   13.8610 	   23.0000 	    1.0000 	   30.7390 
    1.2894 	   13.8790 	   23.0000 	    1.0000 	   30.7750 
    0.8011 	   13.8960 	   23.0000 	    1.0000 	   30.8090 
    1.0758 	   13.9140 	   23.0000 	    1.0000 	   30.8450 
    1.1215 	   13.9305 	   23.0000 	    1.0000 	   30.8780 
    1.0758 	   13.9465 	   23.0000 	    1.0000 	   30.9100 
    1.2589 	   13.9640 	   23.0000 	    1.0000 	   30.9450 
    1.1673 	   13.9815 	   23.0000 	    1.0000 	   30.9800 
    1.1368 	   13.9985 	   23.0000 	    1.0000 	   31.0140 
    1.1978 	   14.0170 	   23.0000 	    1.0000 	   31.0510 
    1.1368 	   14.0340 	   23.0000 	    1.0000 	   31.0850 
    1.1521 	   14.0530 	   23.0000 	    1.0000 	   31.1230 
    1.1215 	   14.0705 	   23.0000 	    1.0000 	   31.1580 
    0.9842 	   14.0875 	   23.0000 	    1.0000 	   31.1920 
    1.0758 	   14.1040 	   23.0000 	    1.0000 	   31.2250 
    1.0910 	   14.1220 	   23.0000 	    1.0000 	   31.2610 
    1.2436 	   14.1390 	   23.0000 	    1.0000 	   31.2950 
    1.0452 	   14.1565 	   23.0000 	    1.0000 	   31.3300 
    1.1978 	   14.1730 	   23.0000 	    1.0000 	   31.3630 
    1.1521 	   14.1900 	   23.0000 	    1.0000 	   31.3970 
    1.0147 	   14.2080 	   23.0000 	    1.0000 	   31.4330 
    1.1215 	   14.2255 	   23.0000 	    1.0000 	   31.4680 
    1.1063 	   14.2430 	   23.0000 	    1.0000 	   31.5030 
    1.0605 	   14.2610 	   23.0000 	    1.0000 	   31.5390 
    1.1215 	   14.2785 	   23.0000 	    1.0000 	   31.5740 
    1.2741 	   14.2975 	   23.0000 	    1.0000 	   31.6120 
    1.0452 	   14.3205 	   23.0000 	    1.0000 	   31.6580 
    1.1063 	   14.3390 	   23.0000 	    1.0000 	   31.6950 
    1.1063 	   14.3570 	   23.0000 	    1.0000 	   31.7310 
    1.0910 	   14.3740 	   23.0000 	    1.0000 	   31.7650 
    0.9842 	   14.3910 	   23.0000 	    1.0000 	   31.7990 
    1.2284 	   14.4085 	   23.0000 	    1.0000 	   31.8340 
    1.3199 	   14.4260 	   23.0000 	    1.0000 	   31.8690 
    1.1215 	   14.4435 	   23.0000 	    1.0000 	   31.9040 
    1.1673 	   14.4610 	   23.0000 	    1.0000 	   31.9390 
    1.1521 	   14.4780 	   23.0000 	    1.0000 	   31.9730 
    1.2436 	   14.4950 	   23.0000 	    1.0000 	   32.0070 
    1.1978 	   14.5125 	   23.0000 	    1.0000 	   32.0420 
    1.0452 	   14.5305 	   23.0000 	    1.0000 	   32.0780 
    1.0605 	   14.5500 	   23.0000 	    1.0000 	   32.1170 
    1.1368 	   14.5665 	   23.0000 	    1.0000 	   32.1500 
    1.2436 	   14.5840 	   23.0000 	    1.0000 	   32.1850 
    1.0300 	   14.6010 	   23.0000 	    1.0000 	   32.2190 
    1.0147 	   14.6185 	   23.0000 	    1.0000 	   32.2541 
    1.2284 	   14.6355 	   23.0000 	    1.0000 	   32.2881 
    1.1215 	   14.6535 	   23.0000 	    1.0000 	   32.3241 
    1.1215 	   14.6705 	   23.0000 	    1.0000 	   32.3581 
    1.1826 	   14.6880 	   23.0000 	    1.0000 	   32.3931 
    1.2131 	   14.7050 	   23.0000 	    1.0000 	   32.4271 
    1.0910 	   14.7235 	   23.0000 	    1.0000 	   32.4641 
    0.9537 	   14.7400 	   23.0000 	    1.0000 	   32.4971 
    1.2131 	   14.7565 	   23.0000 	    1.0000 	   32.5301 
    1.1673 	   14.7740 	   23.0000 	    1.0000 	   32.5651 
    1.1673 	   14.7945 	   23.0000 	    1.0000 	   32.6061 
    1.0910 	   14.8115 	   23.0000 	    1.0000 	   32.6401 
    1.0605 	   14.8275 	   23.0000 	    1.0000 	   32.6721 
    1.2131 	   14.8430 	   23.0000 	    1.0000 	   32.7031 
    1.0605 	   14.8585 	   23.0000 	    1.0000 	   32.7341 
    1.0758 	   14.8735 	   23.0000 	    1.0000 	   32.7641 
    1.1978 	   14.8885 	   23.0000 	    1.0000 	   32.7941 
    1.1673 	   14.9035 	   23.0000 	    1.0000 	   32.8241 
    1.2436 	   14.9190 	   23.0000 	    1.0000 	   32.8551 
    1.1978 	   14.9345 	   23.0000 	    1.0000 	   32.8861 
    1.0758 	   14.9500 	   23.0000 	    1.0000 	   32.9171 
    1.1215 	   14.9655 	   23.0000 	    1.0000 	   32.9481 
    1.1978 	   14.9810 	   23.0000 	    1.0000 	   32.9791 
    1.3199 	   14.9965 	   23.0000 	    1.0000 	   33.0101 
    1.1368 	   15.0120 	   23.0000 	    1.0000 	   33.0411 
    1.3199 	   15.0280 	   23.0000 	    1.0000 	   33.0731 
    1.1673 	   15.0445 	   23.0000 	    1.0000 	   33.1061 
    1.1826 	   15.0600 	   23.0000 	    1.0000 	   33.1371 
    1.1978 	   15.0770 	   23.0000 	    1.0000 	   33.1711 
    1.1215 	   15.0955 	   23.0000 	    1.0000 	   33.2081 
    1.1215 	   15.1135 	   23.0000 	    1.0000 	   33.2441 
    1.2741 	   15.1310 	   23.0000 	    1.0000 	   33.2791 
    1.3046 	   15.1485 	   23.0000 	    1.0000 	   33.3141 
    1.1215 	   15.1650 	   23.0000 	    1.0000 	   33.3471 
    1.2131 	   15.1800 	   23.0000 	    1.0000 	   33.3771 
    1.1063 	   15.1965 	   23.0000 	    1.0000 	   33.4101 
    1.1063 	   15.2135 	   23.0000 	    1.0000 	   33.4441 
    1.1826 	   15.2310 	   23.0000 	    1.0000 	   33.4791 
    1.1215 	   15.2475 	   23.0000 	    1.0000 	   33.5121 
    0.9842 	   15.2640 	   23.0000 	    1.0000 	   33.5451 
    1.2741 	   15.2815 	   23.0000 	    1.0000 	   33.5801 
    1.2741 	   15.2990 	   23.0000 	    1.0000 	   33.6151 
    1.0758 	   15.3205 	   23.0000 	    1.0000 	   33.6581 
    1.2589 	   15.3385 	   23.0000 	    1.0000 	   33.6941 
    1.1826 	   15.3560 	   23.0000 	    1.0000 	   33.7291 
    0.9689 	   15.3735 	   23.0000 	    1.0000 	   33.7641 
    1.0758 	   15.3910 	   23.0000 	    1.0000 	   33.7991 
    1.2894 	   15.4085 	   23.0000 	    1.0000 	   33.8341 
    1.1063 	   15.4265 	   23.0000 	    1.0000 	   33.8701 
    1.1368 	   15.4450 	   23.0000 	    1.0000 	   33.9071 
    1.1826 	   15.4625 	   23.0000 	    1.0000 	   33.9421 
    1.2284 	   15.4805 	   23.0000 	    1.0000 	   33.9781 
    1.1215 	   15.4975 	   23.0000 	    1.0000 	   34.0121 
    1.2741 	   15.5150 	   23.0000 	    1.0000 	   34.0472 
    1.3046 	   15.5320 	   23.0000 	    1.0000 	   34.0812 
    1.1978 	   15.5500 	   23.0000 	    1.0000 	   34.1172 
    1.3504 	   15.5660 	   23.0000 	    1.0000 	   34.1492 
    0.9842 	   15.5810 	   23.0000 	    1.0000 	   34.1792 
    1.1673 	   15.5965 	   23.0000 	    1.0000 	   34.2102 
    1.1063 	   15.6125 	   23.0000 	    1.0000 	   34.2422 
    1.2589 	   15.6280 	   23.0000 	    1.0000 	   34.2732 
    1.2131 	   15.6430 	   23.0000 	    1.0000 	   34.3032 
    1.3046 	   15.6590 	   23.0000 	    1.0000 	   34.3352 
    1.2589 	   15.6770 	   23.0000 	    1.0000 	   34.3712 
    1.2894 	   15.6935 	   23.0000 	    1.0000 	   34.4042 
    1.2131 	   15.7120 	   23.0000 	    1.0000 	   34.4412 
    1.1368 	   15.7295 	   23.0000 	    1.0000 	   34.4762 
    1.1978 	   15.7470 	   23.0000 	    1.0000 	   34.5112 
    1.3809 	   15.7645 	   23.0000 	    1.0000 	   34.5462 
    1.2131 	   15.7825 	   23.0000 	    1.0000 	   34.5822 
    1.1521 	   15.8000 	   23.0000 	    1.0000 	   34.6172 
    1.1826 	   15.8175 	   23.0000 	    1.0000 	   34.6522 
    1.2741 	   15.8345 	   23.0000 	    1.0000 	   34.6862 
    1.1978 	   15.8520 	   23.0000 	    1.0000 	   34.7212 
    1.2894 	   15.8685 	   23.0000 	    1.0000 	   34.7542 
    1.2436 	   15.8865 	   23.0000 	    1.0000 	   34.7902 
    1.3352 	   15.9035 	   23.0000 	    1.0000 	   34.8242 
    1.2589 	   15.9220 	   23.0000 	    1.0000 	   34.8612 
    1.1978 	   15.9390 	   23.0000 	    1.0000 	   34.8952 
    1.2436 	   15.9565 	   23.0000 	    1.0000 	   34.9302 
    0.9689 	   15.9745 	   23.0000 	    1.0000 	   34.9662 
    1.2436 	   15.9920 	   23.0000 	    1.0000 	   35.0012 
    1.1368 	   16.0100 	   23.0000 	    1.0000 	   35.0372 
    1.2131 	   16.0275 	   23.0000 	    1.0000 	   35.0722 
    1.1368 	   16.0465 	   23.0000 	    1.0000 	   35.1102 
    1.4267 	   16.0640 	   23.0000 	    1.0000 	   35.1452 
    1.1978 	   16.0815 	   23.0000 	    1.0000 	   35.1802 
    1.3352 	   16.1000 	   23.0000 	    1.0000 	   35.2162 
    1.1521 	   16.1175 	   23.0000 	    1.0000 	   35.2522 
    1.4420 	   16.1360 	   23.0000 	    1.0000 	   35.2892 
    1.3504 	   16.1520 	   23.0000 	    1.0000 	   35.3212 
    1.2894 	   16.1700 	   23.0000 	    1.0000 	   35.3572 
    1.3046 	   16.1860 	   23.0000 	    1.0000 	   35.3892 
    1.2741 	   16.2040 	   23.0000 	    1.0000 	   35.4252 
    1.2894 	   16.2210 	   23.0000 	    1.0000 	   35.4592 
    1.1368 	   16.2385 	   23.0000 	    1.0000 	   35.4942 
    1.3046 	   16.2550 	   23.0000 	    1.0000 	   35.5272 
    1.3046 	   16.2735 	   23.0000 	    1.0000 	   35.5642 
    1.3046 	   16.2915 	   23.0000 	    1.0000 	   35.6002 
    1.2131 	   16.3095 	   23.0000 	    1.0000 	   35.6362 
    1.3352 	   16.3270 	   23.0000 	    1.0000 	   35.6712 
    1.3352 	   16.3445 	   23.0000 	    1.0000 	   35.7062 
    1.1978 	   16.3615 	   23.0000 	    1.0000 	   35.7402 
    1.1978 	   16.3795 	   23.0000 	    1.0000 	   35.7763 
    1.3046 	   16.3970 	   23.0000 	    1.0000 	   35.8113 
    1.2436 	   16.4150 	   23.0000 	    1.0000 	   35.8473 
    1.2894 	   16.4320 	   23.0000 	    1.0000 	   35.8813 
    1.2741 	   16.4485 	   23.0000 	    1.0000 	   35.9143 
    1.2589 	   16.4660 	   23.0000 	    1.0000 	   35.9493 
    1.3352 	   16.4840 	   23.0000 	    1.0000 	   35.9853 
    1.2589 	   16.5020 	   23.0000 	    1.0000 	   36.0213 
    1.2436 	   16.5205 	   23.0000 	    1.0000 	   36.0583 
    1.1673 	   16.5390 	   23.0000 	    1.0000 	   36.0953 
    1.2131 	   16.5565 	   23.0000 	    1.0000 	   36.1303 
    1.2436 	   16.5740 	   23.0000 	    1.0000 	   36.1653 
    1.2436 	   16.5915 	   23.0000 	    1.0000 	   36.2003 
    1.1673 	   16.6090 	   23.0000 	    1.0000 	   36.2353 
    1.1978 	   16.6270 	   23.0000 	    1.0000 	   36.2713 
    1.3809 	   16.6435 	   23.0000 	    1.0000 	   36.3043 
    1.4572 	   16.6595 	   23.0000 	    1.0000 	   36.3363 
    1.4725 	   16.6770 	   23.0000 	    1.0000 	   36.3703 
    1.2436 	   16.6940 	   23.0000 	    1.0000 	   36.4053 
    1.2741 	   16.7105 	   23.0000 	    1.0000 	   36.4383 
    1.2894 	   16.7280 	   23.0000 	    1.0000 	   36.4733 
    1.3504 	   16.7450 	   23.0000 	    1.0000 	   36.5073 
    1.2284 	   16.7635 	   23.0000 	    1.0000 	   36.5443 
    1.4420 	   16.7815 	   23.0000 	    1.0000 	   36.5803 
    1.2284 	   16.8000 	   23.0000 	    1.0000 	   36.6173 
    1.2894 	   16.8175 	   23.0000 	    1.0000 	   36.6523 
    1.2284 	   16.8370 	   23.0000 	    1.0000 	   36.6913 
    1.2589 	   16.8540 	   23.0000 	    1.0000 	   36.7253 
    1.2131 	   16.8725 	   23.0000 	    1.0000 	   36.7623 
    1.4115 	   16.8910 	   23.0000 	    1.0000 	   36.7993 
    1.2284 	   16.9080 	   23.0000 	    1.0000 	   36.8333 
    1.4267 	   16.9265 	   23.0000 	    1.0000 	   36.8703 
    1.1978 	   16.9455 	   23.0000 	    1.0000 	   36.9083 
    1.3657 	   16.9635 	   23.0000 	    1.0000 	   36.9443 
    1.3962 	   16.9815 	   23.0000 	    1.0000 	   36.9803 
    1.1978 	   16.9985 	   23.0000 	    1.0000 	   37.0143 
    1.3352 	   17.0155 	   23.0000 	    1.0000 	   37.0483 
    1.2436 	   17.0335 	   23.0000 	    1.0000 	   37.0843 
    1.3962 	   17.0515 	   23.0000 	    1.0000 	   37.1203 
    1.3199 	   17.0690 	   23.0000 	    1.0000 	   37.1553 
    1.3504 	   17.0865 	   23.0000 	    1.0000 	   37.1903 
    1.2894 	   17.1045 	   23.0000 	    1.0000 	   37.2263 
    1.1826 	   17.1225 	   23.0000 	    1.0000 	   37.2623 
    1.3504 	   17.1405 	   23.0000 	    1.0000 	   37.2983 
    1.4420 	   17.1580 	   23.0000 	    1.0000 	   37.3333 
    1.2589 	   17.1760 	   23.0000 	    1.0000 	   37.3693 
    1.3657 	   17.1935 	   23.0000 	    1.0000 	   37.4043 
    1.1521 	   17.2110 	   23.0000 	    1.0000 	   37.4393 
    1.3046 	   17.2285 	   23.0000 	    1.0000 	   37.4743 
    1.2741 	   17.2460 	   23.0000 	    1.0000 	   37.5093 
    1.3809 	   17.2640 	   23.0000 	    1.0000 	   37.5454 
    1.2436 	   17.2810 	   23.0000 	    1.0000 	   37.5794 
    1.3962 	   17.2970 	   23.0000 	    1.0000 	   37.6114 
    1.2589 	   17.3205 	   23.0000 	    1.0000 	   37.6584 
    1.2741 	   17.3385 	   23.0000 	    1.0000 	   37.6944 
    1.3809 	   17.3565 	   23.0000 	    1.0000 	   37.7304 
    1.4115 	   17.3740 	   23.0000 	    1.0000 	   37.7654 
    1.2284 	   17.3910 	   23.0000 	    1.0000 	   37.7994 
    1.3199 	   17.4090 	   23.0000 	    1.0000 	   37.8354 
    1.3046 	   17.4270 	   23.0000 	    1.0000 	   37.8714 
    1.1978 	   17.4440 	   23.0000 	    1.0000 	   37.9054 
    1.1673 	   17.4610 	   23.0000 	    1.0000 	   37.9394 
    1.3352 	   17.4790 	   23.0000 	    1.0000 	   37.9754 
    1.2436 	   17.4960 	   23.0000 	    1.0000 	   38.0094 
    1.2589 	   17.5135 	   23.0000 	    1.0000 	   38.0444 
    1.4267 	   17.5305 	   23.0000 	    1.0000 	   38.0784 
    1.2284 	   17.5515 	   23.0000 	    1.0000 	   38.1204 
    1.4115 	   17.5690 	   23.0000 	    1.0000 	   38.1554 
    1.3657 	   17.5865 	   23.0000 	    1.0000 	   38.1904 
    1.3352 	   17.6040 	   23.0000 	    1.0000 	   38.2254 
    1.2284 	   17.6210 	   23.0000 	    1.0000 	   38.2594 
    1.3046 	   17.6385 	   23.0000 	    1.0000 	   38.2944 
    1.0452 	   17.6565 	   23.0000 	    1.0000 	   38.3304 
    1.3809 	   17.6745 	   23.0000 	    1.0000 	   38.3664 
    1.3352 	   17.6925 	   23.0000 	    1.0000 	   38.4024 
    1.2741 	   17.7100 	   23.0000 	    1.0000 	   38.4374 
    1.2894 	   17.7275 	   23.0000 	    1.0000 	   38.4724 
    1.3809 	   17.7460 	   23.0000 	    1.0000 	   38.5094 
    1.3046 	   17.7640 	   23.0000 	    1.0000 	   38.5454 
    1.3199 	   17.7810 	   23.0000 	    1.0000 	   38.5794 
    1.3809 	   17.7990 	   23.0000 	    1.0000 	   38.6154 
    1.3504 	   17.8160 	   23.0000 	    1.0000 	   38.6494 
    1.3199 	   17.8345 	   23.0000 	    1.0000 	   38.6864 
    1.3352 	   17.8520 	   23.0000 	    1.0000 	   38.7214 
    1.5183 	   17.8695 	   23.0000 	    1.0000 	   38.7564 
    1.3504 	   17.8885 	   23.0000 	    1.0000 	   38.7944 
    1.3046 	   17.9065 	   23.0000 	    1.0000 	   38.8304 
    1.3352 	   17.9240 	   23.0000 	    1.0000 	   38.8654 
    1.4115 	   17.9410 	   23.0000 	    1.0000 	   38.8994 
    1.3809 	   17.9580 	   23.0000 	    1.0000 	   38.9334 
    1.2589 	   17.9750 	   23.0000 	    1.0000 	   38.9674 
    1.2284 	   17.9930 	   23.0000 	    1.0000 	   39.0034 
    1.4572 	   18.0115 	   23.0000 	    1.0000 	   39.0404 
    1.3809 	   18.0285 	   23.0000 	    1.0000 	   39.0744 
    1.0910 	   18.0470 	   23.0000 	    1.0000 	   39.1114 
    1.3809 	   18.0655 	   23.0000 	    1.0000 	   39.1484 
    1.2284 	   18.0840 	   23.0000 	    1.0000 	   39.1854 
    1.3657 	   18.1020 	   23.0000 	    1.0000 	   39.2214 
    1.4115 	   18.1200 	   23.0000 	    1.0000 	   39.2575 
    1.3046 	   18.1370 	   23.0000 	    1.0000 	   39.2915 
    1.4420 	   18.1545 	   23.0000 	    1.0000 	   39.3265 
    1.4267 	   18.1725 	   23.0000 	    1.0000 	   39.3625 
    0.9232 	   18.1905 	   23.0000 	    1.0000 	   39.3985 
    1.2589 	   18.2085 	   23.0000 	    1.0000 	   39.4345 
    1.4572 	   18.2270 	   23.0000 	    1.0000 	   39.4715 
    1.3046 	   18.2450 	   23.0000 	    1.0000 	   39.5075 
    1.3199 	   18.2630 	   23.0000 	    1.0000 	   39.5435 
    1.3352 	   18.2810 	   23.0000 	    1.0000 	   39.5795 
    1.4115 	   18.2990 	   23.0000 	    1.0000 	   39.6155 
    1.3046 	   18.3205 	   23.0000 	    1.0000 	   39.6585 
    1.0758 	   18.3375 	   23.0000 	    1.0000 	   39.6925 
    1.3504 	   18.3525 	   23.0000 	    1.0000 	   39.7225 
    1.3504 	   18.3705 	   23.0000 	    1.0000 	   39.7585 
    1.3352 	   18.3870 	   23.0000 	    1.0000 	   39.7915 
    1.1978 	   18.4030 	   23.0000 	    1.0000 	   39.8235 
    1.0758 	   18.4190 	   23.0000 	    1.0000 	   39.8555 
    1.4267 	   18.4350 	   23.0000 	    1.0000 	   39.8875 
    1.4572 	   18.4510 	   23.0000 	    1.0000 	   39.9195 
    1.2894 	   18.4670 	   23.0000 	    1.0000 	   39.9515 
    1.2894 	   18.4825 	   23.0000 	    1.0000 	   39.9825 
    1.0147 	   18.4985 	   23.0000 	    1.0000 	   40.0145 
    1.3352 	   18.5145 	   23.0000 	    1.0000 	   40.0465 
    1.1521 	   18.5300 	   23.0000 	    1.0000 	   40.0775 
    1.3657 	   18.5490 	   23.0000 	    1.0000 	   40.1155 
    1.3809 	   18.5665 	   23.0000 	    1.0000 	   40.1505 
    1.5488 	   18.5825 	   23.0000 	    1.0000 	   40.1825 
    1.3504 	   18.5980 	   23.0000 	    1.0000 	   40.2135 
    1.2741 	   18.6140 	   23.0000 	    1.0000 	   40.2455 
    1.3657 	   18.6300 	   23.0000 	    1.0000 	   40.2775 
    1.4725 	   18.6460 	   23.0000 	    1.0000 	   40.3095 
    1.3504 	   18.6615 	   23.0000 	    1.0000 	   40.3405 
    1.5030 	   18.6780 	   23.0000 	    1.0000 	   40.3735 
    1.2589 	   18.6950 	   23.0000 	    1.0000 	   40.4075 
    1.3199 	   18.7125 	   23.0000 	    1.0000 	   40.4425 
    1.3962 	   18.7305 	   23.0000 	    1.0000 	   40.4785 
    1.4267 	   18.7490 	   23.0000 	    1.0000 	   40.5155 
    1.3657 	   18.7670 	   23.0000 	    1.0000 	   40.5515 
    1.4725 	   18.7845 	   23.0000 	    1.0000 	   40.5865 
    0.9995 	   18.8030 	   23.0000 	    1.0000 	   40.6235 
    1.3046 	   18.8210 	   23.0000 	    1.0000 	   40.6595 
    1.3199 	   18.8385 	   23.0000 	    1.0000 	   40.6945 
    1.2436 	   18.8560 	   23.0000 	    1.0000 	   40.7295 
    1.3504 	   18.8740 	   23.0000 	    1.0000 	   40.7655 
    1.3962 	   18.8910 	   23.0000 	    1.0000 	   40.7995 
    1.4725 	   18.9090 	   23.0000 	    1.0000 	   40.8355 
    1.2131 	   18.9270 	   23.0000 	    1.0000 	   40.8715 
    1.3352 	   18.9445 	   23.0000 	    1.0000 	   40.9065 
    1.3657 	   18.9635 	   23.0000 	    1.0000 	   40.9445 
    1.3809 	   18.9820 	   23.0000 	    1.0000 	   40.9815 
    1.2741 	   19.0000 	   23.0000 	    1.0000 	   41.0176 
    1.5030 	   19.0190 	   23.0000 	    1.0000 	   41.0556 
    1.3809 	   19.0375 	   23.0000 	    1.0000 	   41.0926 
    1.3504 	   19.0560 	   23.0000 	    1.0000 	   41.1296 
    1.6098 	   19.0740 	   23.0000 	    1.0000 	   41.1656 
    1.2741 	   19.0915 	   23.0000 	    1.0000 	   41.2006 
    1.5030 	   19.1105 	   23.0000 	    1.0000 	   41.2386 
    1.4878 	   19.1285 	   23.0000 	    1.0000 	   41.2746 
    1.3657 	   19.1460 	   23.0000 	    1.0000 	   41.3096 
    1.2436 	   19.1635 	   23.0000 	    1.0000 	   41.3446 
    1.3962 	   19.1815 	   23.0000 	    1.0000 	   41.3806 
    1.2589 	   19.1995 	   23.0000 	    1.0000 	   41.4166 
    1.4267 	   19.2170 	   23.0000 	    1.0000 	   41.4516 
    1.3352 	   19.2360 	   23.0000 	    1.0000 	   41.4896 
    1.5640 	   19.2535 	   23.0000 	    1.0000 	   41.5246 
    1.4725 	   19.2715 	   23.0000 	    1.0000 	   41.5606 
    1.2436 	   19.2885 	   23.0000 	    1.0000 	   41.5946 
    1.4572 	   19.3065 	   23.0000 	    1.0000 	   41.6306 
    1.2741 	   19.3240 	   23.0000 	    1.0000 	   41.6656 
    1.5030 	   19.3415 	   23.0000 	    1.0000 	   41.7006 
    1.3657 	   19.3590 	   23.0000 	    1.0000 	   41.7356 
    1.4878 	   19.3765 	   23.0000 	    1.0000 	   41.7696 
    1.4115 	   19.3935 	   23.0000 	    1.0000 	   41.8046 
    1.3657 	   19.4125 	   23.0000 	    1.0000 	   41.8426 
    1.6403 	   19.4305 	   23.0000 	    1.0000 	   41.8786 
    1.3809 	   19.4485 	   23.0000 	    1.0000 	   41.9146 
    1.3504 	   19.4685 	   23.0000 	    1.0000 	   41.9546 
    1.3199 	   19.4865 	   23.0000 	    1.0000 	   41.9906 
    1.3504 	   19.5050 	   23.0000 	    1.0000 	   42.0276 
    1.4115 	   19.5235 	   23.0000 	    1.0000 	   42.0646 
    1.4725 	   19.5430 	   23.0000 	    1.0000 	   42.1036 
    1.4267 	   19.5610 	   23.0000 	    1.0000 	   42.1396 
    1.3962 	   19.5785 	   23.0000 	    1.0000 	   42.1746 
    1.4725 	   19.5975 	   23.0000 	    1.0000 	   42.2126 
    1.4115 	   19.6155 	   23.0000 	    1.0000 	   42.2486 
    1.3962 	   19.6320 	   23.0000 	    1.0000 	   42.2816 
    1.4115 	   19.6500 	   23.0000 	    1.0000 	   42.3176 
    1.3809 	   19.6680 	   23.0000 	    1.0000 	   42.3536 
    1.3657 	   19.6860 	   23.0000 	    1.0000 	   42.3896 
    1.3657 	   19.7045 	   23.0000 	    1.0000 	   42.4266 
    1.3504 	   19.7235 	   23.0000 	    1.0000 	   42.4646 
    1.5335 	   19.7415 	   23.0000 	    1.0000 	   42.5006 
    1.4572 	   19.7590 	   23.0000 	    1.0000 	   42.5356 
    1.0910 	   19.7770 	   23.0000 	    1.0000 	   42.5706 
    1.3199 	   19.7950 	   23.0000 	    1.0000 	   42.6076 
    1.3962 	   19.8125 	   23.0000 	    1.0000 	   42.6426 
    1.4267 	   19.8315 	   23.0000 	    1.0000 	   42.6806 
    1.3504 	   19.8500 	   23.0000 	    1.0000 	   42.7176 
    1.6098 	   19.8675 	   23.0000 	    1.0000 	   42.7527 
    1.4420 	   19.8860 	   23.0000 	    1.0000 	   42.7896 
    1.5030 	   19.9045 	   23.0000 	    1.0000 	   42.8267 
    1.4725 	   19.9220 	   23.0000 	    1.0000 	   42.8617 
    1.4115 	   19.9405 	   23.0000 	    1.0000 	   42.8987 
    1.4115 	   19.9600 	   23.0000 	    1.0000 	   42.9377 
    1.5335 	   19.9775 	   23.0000 	    1.0000 	   42.9727 
    1.5030 	   19.9960 	   23.0000 	    1.0000 	   43.0097 
    1.6403 	   20.0145 	   23.0000 	    1.0000 	   43.0467 
    1.5640 	   20.0330 	   23.0000 	    1.0000 	   43.0837 
    1.4115 	   20.0525 	   23.0000 	    1.0000 	   43.1227 
    1.3809 	   20.0705 	   23.0000 	    1.0000 	   43.1587 
    1.4420 	   20.0895 	   23.0000 	    1.0000 	   43.1967 
    1.5183 	   20.1070 	   23.0000 	    1.0000 	   43.2317 
    1.4420 	   20.1255 	   23.0000 	    1.0000 	   43.2687 
    1.3809 	   20.1435 	   23.0000 	    1.0000 	   43.3047 
    1.4878 	   20.1610 	   23.0000 	    1.0000 	   43.3397 
    1.4115 	   20.1795 	   23.0000 	    1.0000 	   43.3767 
    1.4725 	   20.1995 	   23.0000 	    1.0000 	   43.4167 
    1.5183 	   20.2175 	   23.0000 	    1.0000 	   43.4527 
    1.2894 	   20.2360 	   23.0000 	    1.0000 	   43.4897 
    1.6403 	   20.2535 	   23.0000 	    1.0000 	   43.5247 
    1.4267 	   20.2720 	   23.0000 	    1.0000 	   43.5617 
    1.2741 	   20.2900 	   23.0000 	    1.0000 	   43.5977 
    1.5488 	   20.3090 	   23.0000 	    1.0000 	   43.6357 
    1.4725 	   20.3275 	   23.0000 	    1.0000 	   43.6727 
    1.5335 	   20.3455 	   23.0000 	    1.0000 	   43.7087 
    1.5640 	   20.3635 	   23.0000 	    1.0000 	   43.7447 
    1.4115 	   20.3820 	   23.0000 	    1.0000 	   43.7817 
    1.4267 	   20.4015 	   23.0000 	    1.0000 	   43.8197 
    1.4420 	   20.4195 	   23.0000 	    1.0000 	   43.8557 
    1.4572 	   20.4385 	   23.0000 	    1.0000 	   43.8937 
    1.4115 	   20.4560 	   23.0000 	    1.0000 	   43.9287 
    1.4267 	   20.4745 	   23.0000 	    1.0000 	   43.9657 
    1.3962 	   20.4935 	   23.0000 	    1.0000 	   44.0037 
    1.5488 	   20.5115 	   23.0000 	    1.0000 	   44.0397 
    1.4878 	   20.5295 	   23.0000 	    1.0000 	   44.0757 
    1.4420 	   20.5495 	   23.0000 	    1.0000 	   44.1157 
    1.5946 	   20.5675 	   23.0000 	    1.0000 	   44.1517 
    1.4267 	   20.5865 	   23.0000 	    1.0000 	   44.1897 
    1.3352 	   20.6060 	   23.0000 	    1.0000 	   44.2287 
    1.2894 	   20.6230 	   23.0000 	    1.0000 	   44.2627 
    1.5335 	   20.6415 	   23.0000 	    1.0000 	   44.2997 
    1.4420 	   20.6595 	   23.0000 	    1.0000 	   44.3357 
    1.5030 	   20.6770 	   23.0000 	    1.0000 	   44.3707 
    1.5183 	   20.6930 	   23.0000 	    1.0000 	   44.4027 
    1.5488 	   20.7105 	   23.0000 	    1.0000 	   44.4377 
    1.5640 	   20.7290 	   23.0000 	    1.0000 	   44.4747 
    1.5030 	   20.7475 	   23.0000 	    1.0000 	   44.5117 
    1.3657 	   20.7660 	   23.0000 	    1.0000 	   44.5488 
    1.5335 	   20.7835 	   23.0000 	    1.0000 	   44.5838 
    1.4115 	   20.8000 	   23.0000 	    1.0000 	   44.6168 
    1.4878 	   20.8160 	   23.0000 	    1.0000 	   44.6488 
    1.1215 	   20.8335 	   23.0000 	    1.0000 	   44.6838 
    1.6098 	   20.8510 	   23.0000 	    1.0000 	   44.7188 
    1.4725 	   20.8700 	   23.0000 	    1.0000 	   44.7568 
    1.5183 	   20.8870 	   23.0000 	    1.0000 	   44.7908 
    1.4420 	   20.9055 	   23.0000 	    1.0000 	   44.8278 
    1.4420 	   20.9240 	   23.0000 	    1.0000 	   44.8648 
    1.5793 	   20.9435 	   23.0000 	    1.0000 	   44.9038 
    1.3657 	   20.9635 	   23.0000 	    1.0000 	   44.9438 
    1.4725 	   20.9815 	   23.0000 	    1.0000 	   44.9798 
    1.4115 	   21.0005 	   23.0000 	    1.0000 	   45.0178 
    1.5488 	   21.0190 	   23.0000 	    1.0000 	   45.0548 
    1.4725 	   21.0385 	   23.0000 	    1.0000 	   45.0938 
    1.4572 	   21.0565 	   23.0000 	    1.0000 	   45.1298 
    1.3046 	   21.0745 	   23.0000 	    1.0000 	   45.1658 
    1.5640 	   21.0920 	   23.0000 	    1.0000 	   45.2008 
    1.4267 	   21.1115 	   23.0000 	    1.0000 	   45.2398 
    1.3504 	   21.1295 	   23.0000 	    1.0000 	   45.2758 
    1.5640 	   21.1475 	   23.0000 	    1.0000 	   45.3118 
    1.6098 	   21.1655 	   23.0000 	    1.0000 	   45.3478 
    1.5335 	   21.1845 	   23.0000 	    1.0000 	   45.3858 
    1.5640 	   21.2030 	   23.0000 	    1.0000 	   45.4228 
    1.3809 	   21.2220 	   23.0000 	    1.0000 	   45.4608 
    1.6098 	   21.2405 	   23.0000 	    1.0000 	   45.4968 
    1.5793 	   21.2585 	   23.0000 	    1.0000 	   45.5338 
    1.4878 	   21.2780 	   23.0000 	    1.0000 	   45.5728 
    1.5793 	   21.2970 	   23.0000 	    1.0000 	   45.6108 
    1.4420 	   21.3210 	   23.0000 	    1.0000 	   45.6588 
    1.4725 	   21.3390 	   23.0000 	    1.0000 	   45.6948 
    1.5640 	   21.3560 	   23.0000 	    1.0000 	   45.7288 
    1.5640 	   21.3745 	   23.0000 	    1.0000 	   45.7658 
    1.6556 	   21.3930 	   23.0000 	    1.0000 	   45.8028 
    1.5335 	   21.4100 	   23.0000 	    1.0000 	   45.8368 
    1.5335 	   21.4285 	   23.0000 	    1.0000 	   45.8738 
    1.5335 	   21.4470 	   23.0000 	    1.0000 	   45.9108 
    1.4267 	   21.4650 	   23.0000 	    1.0000 	   45.9468 
    1.1673 	   21.4830 	   23.0000 	    1.0000 	   45.9828 
    1.5335 	   21.5020 	   23.0000 	    1.0000 	   46.0208 
    1.5335 	   21.5210 	   23.0000 	    1.0000 	   46.0588 
    1.4572 	   21.5405 	   23.0000 	    1.0000 	   46.0978 
    1.3199 	   21.5580 	   23.0000 	    1.0000 	   46.1328 
    1.5946 	   21.5755 	   23.0000 	    1.0000 	   46.1678 
    1.4878 	   21.5930 	   23.0000 	    1.0000 	   46.2028 
    1.5030 	   21.6100 	   23.0000 	    1.0000 	   46.2369 
    1.3504 	   21.6290 	   23.0000 	    1.0000 	   46.2749 
    1.4725 	   21.6465 	   23.0000 	    1.0000 	   46.3099 
    1.5488 	   21.6655 	   23.0000 	    1.0000 	   46.3479 
    1.5030 	   21.6840 	   23.0000 	    1.0000 	   46.3849 
    1.4878 	   21.7025 	   23.0000 	    1.0000 	   46.4219 
    1.5793 	   21.7205 	   23.0000 	    1.0000 	   46.4579 
    1.5793 	   21.7385 	   23.0000 	    1.0000 	   46.4939 
    1.4725 	   21.7570 	   23.0000 	    1.0000 	   46.5309 
    1.6251 	   21.7745 	   23.0000 	    1.0000 	   46.5659 
    1.5183 	   21.7935 	   23.0000 	    1.0000 	   46.6039 
    1.5335 	   21.8125 	   23.0000 	    1.0000 	   46.6419 
    1.5488 	   21.8315 	   23.0000 	    1.0000 	   46.6799 
    1.2284 	   21.8500 	   23.0000 	    1.0000 	   46.7159 
    1.5488 	   21.8680 	   23.0000 	    1.0000 	   46.7529 
    1.6403 	   21.8865 	   23.0000 	    1.0000 	   46.7899 
    1.5488 	   21.9050 	   23.0000 	    1.0000 	   46.8269 
    1.5793 	   21.9240 	   23.0000 	    1.0000 	   46.8649 
    1.5488 	   21.9420 	   23.0000 	    1.0000 	   46.9009 
    1.5030 	   21.9600 	   23.0000 	    1.0000 	   46.9369 
    1.5946 	   21.9780 	   23.0000 	    1.0000 	   46.9729 
    1.5335 	   21.9965 	   23.0000 	    1.0000 	   47.0099 
    1.5793 	   22.0140 	   23.0000 	    1.0000 	   47.0449 
    1.6556 	   22.0325 	   23.0000 	    1.0000 	   47.0819 
    1.5793 	   22.0525 	   23.0000 	    1.0000 	   47.1219 
    1.5030 	   22.0715 	   23.0000 	    1.0000 	   47.1599 
    1.4115 	   22.0900 	   23.0000 	    1.0000 	   47.1969 
    1.5640 	   22.1085 	   23.0000 	    1.0000 	   47.2339 
    1.5488 	   22.1265 	   23.0000 	    1.0000 	   47.2699 
    1.6861 	   22.1455 	   23.0000 	    1.0000 	   47.3079 
    1.5793 	   22.1635 	   23.0000 	    1.0000 	   47.3439 
    1.5640 	   22.1820 	   23.0000 	    1.0000 	   47.3809 
    1.4267 	   22.2000 	   23.0000 	    1.0000 	   47.4169 
    1.4878 	   22.2185 	   23.0000 	    1.0000 	   47.4539 
    1.4725 	   22.2365 	   23.0000 	    1.0000 	   47.4899 
    1.4725 	   22.2540 	   23.0000 	    1.0000 	   47.5249 
    1.5335 	   22.2725 	   23.0000 	    1.0000 	   47.5619 
    1.6403 	   22.2910 	   23.0000 	    1.0000 	   47.5989 
    1.5335 	   22.3085 	   23.0000 	    1.0000 	   47.6339 
    1.5488 	   22.3285 	   23.0000 	    1.0000 	   47.6739 
    1.5335 	   22.3475 	   23.0000 	    1.0000 	   47.7119 
    1.5183 	   22.3675 	   23.0000 	    1.0000 	   47.7519 
    1.4878 	   22.3880 	   23.0000 	    1.0000 	   47.7929 
    1.6709 	   22.4060 	   23.0000 	    1.0000 	   47.8289 
    1.4420 	   22.4245 	   23.0000 	    1.0000 	   47.8659 
    1.5335 	   22.4430 	   23.0000 	    1.0000 	   47.9029 
    1.7014 	   22.4620 	   23.0000 	    1.0000 	   47.9409 
    1.5030 	   22.4810 	   23.0000 	    1.0000 	   47.9790 
    1.4420 	   22.5000 	   23.0000 	    1.0000 	   48.0170 
    1.6556 	   22.5180 	   23.0000 	    1.0000 	   48.0530 
    1.5946 	   22.5395 	   23.0000 	    1.0000 	   48.0960 
    1.6098 	   22.5575 	   23.0000 	    1.0000 	   48.1320 
    1.5640 	   22.5760 	   23.0000 	    1.0000 	   48.1690 
    1.3046 	   22.5940 	   23.0000 	    1.0000 	   48.2050 
    1.5335 	   22.6115 	   23.0000 	    1.0000 	   48.2400 
    1.5946 	   22.6300 	   23.0000 	    1.0000 	   48.2770 
    1.5793 	   22.6485 	   23.0000 	    1.0000 	   48.3140 
    1.6251 	   22.6660 	   23.0000 	    1.0000 	   48.3490 
    1.5946 	   22.6830 	   23.0000 	    1.0000 	   48.3830 
    1.3962 	   22.6990 	   23.0000 	    1.0000 	   48.4150 
    1.5335 	   22.7165 	   23.0000 	    1.0000 	   48.4500 
    1.6709 	   22.7335 	   23.0000 	    1.0000 	   48.4840 
    1.6098 	   22.7505 	   23.0000 	    1.0000 	   48.5180 
    1.3046 	   22.7665 	   23.0000 	    1.0000 	   48.5500 
    1.5640 	   22.7825 	   23.0000 	    1.0000 	   48.5820 
    1.5946 	   22.7990 	   23.0000 	    1.0000 	   48.6150 
    1.5488 	   22.8150 	   23.0000 	    1.0000 	   48.6470 
    1.5183 	   22.8310 	   23.0000 	    1.0000 	   48.6790 
    1.6556 	   22.8475 	   23.0000 	    1.0000 	   48.7120 
    1.5488 	   22.8640 	   23.0000 	    1.0000 	   48.7450 
    1.2894 	   22.8795 	   23.0000 	    1.0000 	   48.7760 
    1.5030 	   22.8975 	   23.0000 	    1.0000 	   48.8120 
    1.6556 	   22.9155 	   23.0000 	    1.0000 	   48.8480 
    1.4725 	   22.9340 	   23.0000 	    1.0000 	   48.8850 
    1.3657 	   22.9525 	   23.0000 	    1.0000 	   48.9220 
    1.6556 	   22.9705 	   23.0000 	    1.0000 	   48.9580 
    1.4725 	   22.9880 	   23.0000 	    1.0000 	   48.9930 
    1.4725 	   23.0065 	   23.0000 	    1.0000 	   49.0290 
    1.5183 	   23.0245 	   23.0000 	    1.0000 	   49.0660 
    1.6861 	   23.0455 	   23.0000 	    1.0000 	   49.1080 
    1.5488 	   23.0635 	   23.0000 	    1.0000 	   49.1440 
    1.8692 	   23.0825 	   23.0000 	    1.0000 	   49.1820 
    1.6556 	   23.1010 	   23.0000 	    1.0000 	   49.2190 
    1.6403 	   23.1215 	   23.0000 	    1.0000 	   49.2600 
    1.5030 	   23.1405 	   23.0000 	    1.0000 	   49.2980 
    1.5183 	   23.1590 	   23.0000 	    1.0000 	   49.3350 
    1.5946 	   23.1770 	   23.0000 	    1.0000 	   49.3710 
    1.6556 	   23.1950 	   23.0000 	    1.0000 	   49.4070 
    1.5946 	   23.2125 	   23.0000 	    1.0000 	   49.4420 
    1.6403 	   23.2310 	   23.0000 	    1.0000 	   49.4790 
    1.7472 	   23.2490 	   23.0000 	    1.0000 	   49.5150 
    1.6861 	   23.2675 	   23.0000 	    1.0000 	   49.5520 
    1.5640 	   23.2850 	   23.0000 	    1.0000 	   49.5870 
    1.5335 	   23.3040 	   23.0000 	    1.0000 	   49.6250 
    1.6403 	   23.3235 	   23.0000 	    1.0000 	   49.6640 
    1.6861 	   23.3425 	   23.0000 	    1.0000 	   49.7020 
    1.7472 	   23.3610 	   23.0000 	    1.0000 	   49.7390 
    1.5335 	   23.3785 	   23.0000 	    1.0000 	   49.7741 
    1.6709 	   23.3970 	   23.0000 	    1.0000 	   49.8111 
    1.4420 	   23.4160 	   23.0000 	    1.0000 	   49.8491 
    1.6556 	   23.4340 	   23.0000 	    1.0000 	   49.8851 
    1.6861 	   23.4525 	   23.0000 	    1.0000 	   49.9221 
    1.6251 	   23.4705 	   23.0000 	    1.0000 	   49.9581 
    1.6403 	   23.4890 	   23.0000 	    1.0000 	   49.9951 
    1.5640 	   23.5080 	   23.0000 	    1.0000 	   50.0321 
    1.5640 	   23.5270 	   23.0000 	    1.0000 	   50.0711 
    1.6556 	   23.5470 	   23.0000 	    1.0000 	   50.1111 
    1.7014 	   23.5660 	   23.0000 	    1.0000 	   50.1491 
    1.5946 	   23.5835 	   23.0000 	    1.0000 	   50.1841 
    1.5946 	   23.6010 	   23.0000 	    1.0000 	   50.2191 
    1.5946 	   23.6170 	   23.0000 	    1.0000 	   50.2511 
    1.6556 	   23.6335 	   23.0000 	    1.0000 	   50.2841 
    1.5335 	   23.6500 	   23.0000 	    1.0000 	   50.3171 
    1.6556 	   23.6660 	   23.0000 	    1.0000 	   50.3491 
    1.6556 	   23.6835 	   23.0000 	    1.0000 	   50.3841 
    1.6709 	   23.7020 	   23.0000 	    1.0000 	   50.4211 
    1.6403 	   23.7200 	   23.0000 	    1.0000 	   50.4571 
    1.7166 	   23.7375 	   23.0000 	    1.0000 	   50.4921 
    1.6556 	   23.7555 	   23.0000 	    1.0000 	   50.5281 
    1.5946 	   23.7750 	   23.0000 	    1.0000 	   50.5671 
    1.5946 	   23.7930 	   23.0000 	    1.0000 	   50.6031 
    1.7166 	   23.8130 	   23.0000 	    1.0000 	   50.6431 
    1.6556 	   23.8315 	   23.0000 	    1.0000 	   50.6801 
    1.5793 	   23.8490 	   23.0000 	    1.0000 	   50.7151 
    1.3046 	   23.8670 	   23.0000 	    1.0000 	   50.7511 
    1.6403 	   23.8855 	   23.0000 	    1.0000 	   50.7881 
    1.6709 	   23.9045 	   23.0000 	    1.0000 	   50.8261 
    1.4725 	   23.9235 	   23.0000 	    1.0000 	   50.8641 
    1.5030 	   23.9420 	   23.0000 	    1.0000 	   50.9011 
    1.6709 	   23.9605 	   23.0000 	    1.0000 	   50.9381 
    1.7166 	   23.9795 	   23.0000 	    1.0000 	   50.9761 
    1.6556 	   23.9985 	   23.0000 	    1.0000 	   51.0141 
    1.7014 	   24.0160 	   23.0000 	    1.0000 	   51.0491 
    1.6709 	   24.0345 	   23.0000 	    1.0000 	   51.0861 
    1.7166 	   24.0550 	   23.0000 	    1.0000 	   51.1271 
    1.7319 	   24.0735 	   23.0000 	    1.0000 	   51.1641 
    1.6709 	   24.0915 	   23.0000 	    1.0000 	   51.2001 
    1.7319 	   24.1100 	   23.0000 	    1.0000 	   51.2371 
    1.6861 	   24.1295 	   23.0000 	    1.0000 	   51.2761 
    1.7929 	   24.1485 	   23.0000 	    1.0000 	   51.3141 
    1.6709 	   24.1670 	   23.0000 	    1.0000 	   51.3511 
    1.7472 	   24.1855 	   23.0000 	    1.0000 	   51.3881 
    1.5640 	   24.2045 	   23.0000 	    1.0000 	   51.4261 
    1.6709 	   24.2220 	   23.0000 	    1.0000 	   51.4611 
    1.4725 	   24.2410 	   23.0000 	    1.0000 	   51.4991 
    1.6556 	   24.2590 	   23.0000 	    1.0000 	   51.5352 
    1.5640 	   24.2780 	   23.0000 	    1.0000 	   51.5732 
    1.5640 	   24.2960 	   23.0000 	    1.0000 	   51.6092 
    1.5793 	   24.3205 	   23.0000 	    1.0000 	   51.6582 
    1.7166 	   24.3400 	   23.0000 	    1.0000 	   51.6972 
    1.6556 	   24.3580 	   23.0000 	    1.0000 	   51.7332 
    1.7777 	   24.3760 	   23.0000 	    1.0000 	   51.7692 
    1.4725 	   24.3945 	   23.0000 	    1.0000 	   51.8062 
    1.7472 	   24.4135 	   23.0000 	    1.0000 	   51.8442 
    1.6861 	   24.4320 	   23.0000 	    1.0000 	   51.8812 
    1.6861 	   24.4505 	   23.0000 	    1.0000 	   51.9182 
    1.6861 	   24.4695 	   23.0000 	    1.0000 	   51.9562 
    1.6098 	   24.4880 	   23.0000 	    1.0000 	   51.9932 
    1.5335 	   24.5070 	   23.0000 	    1.0000 	   52.0312 
    1.8692 	   24.5255 	   23.0000 	    1.0000 	   52.0682 
    1.7472 	   24.5460 	   23.0000 	    1.0000 	   52.1092 
    1.7166 	   24.5655 	   23.0000 	    1.0000 	   52.1482 
    1.6709 	   24.5835 	   23.0000 	    1.0000 	   52.1842 
    1.6251 	   24.6015 	   23.0000 	    1.0000 	   52.2202 
    1.3809 	   24.6200 	   23.0000 	    1.0000 	   52.2572 
    1.6403 	   24.6390 	   23.0000 	    1.0000 	   52.2952 
    1.6403 	   24.6570 	   23.0000 	    1.0000 	   52.3312 
    1.6709 	   24.6750 	   23.0000 	    1.0000 	   52.3672 
    1.6403 	   24.6935 	   23.0000 	    1.0000 	   52.4032 
    1.7166 	   24.7120 	   23.0000 	    1.0000 	   52.4412 
    1.5946 	   24.7305 	   23.0000 	    1.0000 	   52.4782 
    1.7319 	   24.7490 	   23.0000 	    1.0000 	   52.5152 
    1.5793 	   24.7670 	   23.0000 	    1.0000 	   52.5512 
    1.8387 	   24.7850 	   23.0000 	    1.0000 	   52.5872 
    1.7014 	   24.8045 	   23.0000 	    1.0000 	   52.6262 
    1.6556 	   24.8240 	   23.0000 	    1.0000 	   52.6652 
    1.5488 	   24.8425 	   23.0000 	    1.0000 	   52.7022 
    1.8082 	   24.8615 	   23.0000 	    1.0000 	   52.7402 
    1.6556 	   24.8790 	   23.0000 	    1.0000 	   52.7752 
    1.5640 	   24.8955 	   23.0000 	    1.0000 	   52.8082 
    1.6251 	   24.9120 	   23.0000 	    1.0000 	   52.8412 
    1.5640 	   24.9280 	   23.0000 	    1.0000 	   52.8732 
    1.7014 	   24.9440 	   23.0000 	    1.0000 	   52.9052 
    1.8387 	   24.9620 	   23.0000 	    1.0000 	   52.9412 
    1.6556 	   24.9780 	   23.0000 	    1.0000 	   52.9732 
    1.6556 	   24.9945 	   23.0000 	    1.0000 	   53.0062 
    1.6709 	   25.0120 	   23.0000 	    1.0000 	   53.0412 
    1.7014 	   25.0295 	   23.0000 	    1.0000 	   53.0762 
    1.7166 	   25.0480 	   23.0000 	    1.0000 	   53.1132 
    1.5946 	   25.0650 	   23.0000 	    1.0000 	   53.1472 
    1.4725 	   25.0815 	   23.0000 	    1.0000 	   53.1802 
    1.6556 	   25.0980 	   23.0000 	    1.0000 	   53.2132 
    1.5946 	   25.1150 	   23.0000 	    1.0000 	   53.2472 
    1.7166 	   25.1320 	   23.0000 	    1.0000 	   53.2812 
    1.8387 	   25.1480 	   23.0000 	    1.0000 	   53.3133 
    1.5793 	   25.1650 	   23.0000 	    1.0000 	   53.3473 
    1.6709 	   25.1815 	   23.0000 	    1.0000 	   53.3803 
    1.8540 	   25.1985 	   23.0000 	    1.0000 	   53.4143 
    1.6861 	   25.2150 	   23.0000 	    1.0000 	   53.4473 
    1.6251 	   25.2315 	   23.0000 	    1.0000 	   53.4803 
    1.7166 	   25.2485 	   23.0000 	    1.0000 	   53.5143 
    1.8082 	   25.2660 	   23.0000 	    1.0000 	   53.5493 
    1.8082 	   25.2825 	   23.0000 	    1.0000 	   53.5823 
    1.6098 	   25.2990 	   23.0000 	    1.0000 	   53.6153 
    1.7319 	   25.3205 	   23.0000 	    1.0000 	   53.6583 
    1.7472 	   25.3380 	   23.0000 	    1.0000 	   53.6933 
    1.6861 	   25.3560 	   23.0000 	    1.0000 	   53.7293 
    1.7319 	   25.3750 	   23.0000 	    1.0000 	   53.7673 
    1.5946 	   25.3940 	   23.0000 	    1.0000 	   53.8053 
    1.6403 	   25.4110 	   23.0000 	    1.0000 	   53.8393 
    1.8540 	   25.4280 	   23.0000 	    1.0000 	   53.8733 
    1.6861 	   25.4440 	   23.0000 	    1.0000 	   53.9053 
    1.7014 	   25.4610 	   23.0000 	    1.0000 	   53.9393 
    1.7929 	   25.4775 	   23.0000 	    1.0000 	   53.9723 
    1.8235 	   25.4940 	   23.0000 	    1.0000 	   54.0053 
    1.7166 	   25.5110 	   23.0000 	    1.0000 	   54.0393 
    1.8692 	   25.5275 	   23.0000 	    1.0000 	   54.0723 
    1.5488 	   25.5460 	   23.0000 	    1.0000 	   54.1093 
    1.8235 	   25.5635 	   23.0000 	    1.0000 	   54.1443 
    1.6403 	   25.5820 	   23.0000 	    1.0000 	   54.1813 
    1.4725 	   25.6005 	   23.0000 	    1.0000 	   54.2183 
    1.7166 	   25.6195 	   23.0000 	    1.0000 	   54.2563 
    1.7472 	   25.6380 	   23.0000 	    1.0000 	   54.2933 
    1.6098 	   25.6575 	   23.0000 	    1.0000 	   54.3323 
    1.7472 	   25.6760 	   23.0000 	    1.0000 	   54.3693 
    1.7929 	   25.6950 	   23.0000 	    1.0000 	   54.4073 
    1.7014 	   25.7140 	   23.0000 	    1.0000 	   54.4453 
    1.6098 	   25.7330 	   23.0000 	    1.0000 	   54.4833 
    1.7319 	   25.7520 	   23.0000 	    1.0000 	   54.5213 
    1.8235 	   25.7710 	   23.0000 	    1.0000 	   54.5593 
    1.7166 	   25.7905 	   23.0000 	    1.0000 	   54.5983 
    1.7624 	   25.8090 	   23.0000 	    1.0000 	   54.6353 
    1.8235 	   25.8275 	   23.0000 	    1.0000 	   54.6723 
    1.8082 	   25.8455 	   23.0000 	    1.0000 	   54.7083 
    1.7777 	   25.8650 	   23.0000 	    1.0000 	   54.7473 
    1.7472 	   25.8840 	   23.0000 	    1.0000 	   54.7853 
    1.7319 	   25.9020 	   23.0000 	    1.0000 	   54.8213 
    1.7319 	   25.9215 	   23.0000 	    1.0000 	   54.8603 
    1.7624 	   25.9405 	   23.0000 	    1.0000 	   54.8983 
    1.7166 	   25.9595 	   23.0000 	    1.0000 	   54.9363 
    1.7319 	   25.9775 	   23.0000 	    1.0000 	   54.9723 
    1.7014 	   25.9960 	   23.0000 	    1.0000 	   55.0093 
    1.5946 	   26.0145 	   23.0000 	    1.0000 	   55.0464 
    1.7166 	   26.0335 	   23.0000 	    1.0000 	   55.0844 
    1.6861 	   26.0540 	   23.0000 	    1.0000 	   55.1254 
    1.7014 	   26.0715 	   23.0000 	    1.0000 	   55.1604 
    1.8540 	   26.0910 	   23.0000 	    1.0000 	   55.1994 
    1.7929 	   26.1105 	   23.0000 	    1.0000 	   55.2384 
    1.8540 	   26.1290 	   23.0000 	    1.0000 	   55.2754 
    1.8997 	   26.1480 	   23.0000 	    1.0000 	   55.3134 
    1.6709 	   26.1680 	   23.0000 	    1.0000 	   55.3534 
    1.7777 	   26.1870 	   23.0000 	    1.0000 	   55.3914 
    1.7014 	   26.2050 	   23.0000 	    1.0000 	   55.4274 
    1.6861 	   26.2240 	   23.0000 	    1.0000 	   55.4654 
    1.8082 	   26.2430 	   23.0000 	    1.0000 	   55.5034 
    1.7166 	   26.2630 	   23.0000 	    1.0000 	   55.5434 
    1.7166 	   26.2825 	   23.0000 	    1.0000 	   55.5824 
    1.7319 	   26.3000 	   23.0000 	    1.0000 	   55.6174 
    1.6861 	   26.3205 	   23.0000 	    1.0000 	   55.6584 
    1.7319 	   26.3410 	   23.0000 	    1.0000 	   55.6994 
    1.6861 	   26.3595 	   23.0000 	    1.0000 	   55.7364 
    1.7929 	   26.3790 	   23.0000 	    1.0000 	   55.7754 
    1.7777 	   26.3990 	   23.0000 	    1.0000 	   55.8154 
    1.6861 	   26.4175 	   23.0000 	    1.0000 	   55.8524 
    1.8387 	   26.4360 	   23.0000 	    1.0000 	   55.8894 
    1.7624 	   26.4550 	   23.0000 	    1.0000 	   55.9274 
    1.7319 	   26.4755 	   23.0000 	    1.0000 	   55.9684 
    1.7929 	   26.4935 	   23.0000 	    1.0000 	   56.0044 
    1.7777 	   26.5130 	   23.0000 	    1.0000 	   56.0434 
    1.5030 	   26.5310 	   23.0000 	    1.0000 	   56.0794 
    1.8387 	   26.5520 	   23.0000 	    1.0000 	   56.1214 
    1.6251 	   26.5705 	   23.0000 	    1.0000 	   56.1584 
    1.7929 	   26.5900 	   23.0000 	    1.0000 	   56.1974 
    1.5793 	   26.6090 	   23.0000 	    1.0000 	   56.2354 
    1.8845 	   26.6270 	   23.0000 	    1.0000 	   56.2714 
    1.6861 	   26.6460 	   23.0000 	    1.0000 	   56.3084 
    1.8235 	   26.6650 	   23.0000 	    1.0000 	   56.3474 
    1.9608 	   26.6830 	   23.0000 	    1.0000 	   56.3834 
    1.6709 	   26.7025 	   23.0000 	    1.0000 	   56.4224 
    1.8997 	   26.7235 	   23.0000 	    1.0000 	   56.4644 
    1.8692 	   26.7435 	   23.0000 	    1.0000 	   56.5044 
    1.7472 	   26.7620 	   23.0000 	    1.0000 	   56.5414 
    1.8082 	   26.7815 	   23.0000 	    1.0000 	   56.5804 
    1.8235 	   26.8000 	   23.0000 	    1.0000 	   56.6164 
    1.7777 	   26.8185 	   23.0000 	    1.0000 	   56.6534 
    1.9303 	   26.8375 	   23.0000 	    1.0000 	   56.6924 
    1.9760 	   26.8560 	   23.0000 	    1.0000 	   56.7295 
    1.7624 	   26.8745 	   23.0000 	    1.0000 	   56.7665 
    1.7166 	   26.8935 	   23.0000 	    1.0000 	   56.8045 
    1.5030 	   26.9135 	   23.0000 	    1.0000 	   56.8445 
    1.8387 	   26.9325 	   23.0000 	    1.0000 	   56.8825 
    1.7166 	   26.9515 	   23.0000 	    1.0000 	   56.9205 
    1.8082 	   26.9695 	   23.0000 	    1.0000 	   56.9565 
    1.8845 	   26.9875 	   23.0000 	    1.0000 	   56.9925 
    1.8082 	   27.0065 	   23.0000 	    1.0000 	   57.0305 
    1.7624 	   27.0255 	   23.0000 	    1.0000 	   57.0685 
    1.6709 	   27.0460 	   23.0000 	    1.0000 	   57.1095 
    1.8387 	   27.0650 	   23.0000 	    1.0000 	   57.1475 
    1.7777 	   27.0840 	   23.0000 	    1.0000 	   57.1855 
    1.8997 	   27.1020 	   23.0000 	    1.0000 	   57.2215 
    1.8692 	   27.1210 	   23.0000 	    1.0000 	   57.2595 
    1.7777 	   27.1395 	   23.0000 	    1.0000 	   57.2965 
    1.7472 	   27.1595 	   23.0000 	    1.0000 	   57.3365 
    1.7166 	   27.1780 	   23.0000 	    1.0000 	   57.3735 
    1.8845 	   27.1965 	   23.0000 	    1.0000 	   57.4105 
    1.7624 	   27.2145 	   23.0000 	    1.0000 	   57.4465 
    1.8997 	   27.2335 	   23.0000 	    1.0000 	   57.4845 
    1.8235 	   27.2520 	   23.0000 	    1.0000 	   57.5215 
    1.7014 	   27.2700 	   23.0000 	    1.0000 	   57.5575 
    1.8387 	   27.2885 	   23.0000 	    1.0000 	   57.5945 
    1.7624 	   27.3080 	   23.0000 	    1.0000 	   57.6335 
    1.7472 	   27.3260 	   23.0000 	    1.0000 	   57.6695 
    1.5946 	   27.3455 	   23.0000 	    1.0000 	   57.7085 
    1.7166 	   27.3635 	   23.0000 	    1.0000 	   57.7445 
    1.8997 	   27.3830 	   23.0000 	    1.0000 	   57.7835 
    1.8540 	   27.4025 	   23.0000 	    1.0000 	   57.8225 
    1.9303 	   27.4215 	   23.0000 	    1.0000 	   57.8605 
    1.5793 	   27.4405 	   23.0000 	    1.0000 	   57.8985 
    1.8540 	   27.4595 	   23.0000 	    1.0000 	   57.9365 
    1.8387 	   27.4785 	   23.0000 	    1.0000 	   57.9745 
    1.4725 	   27.4975 	   23.0000 	    1.0000 	   58.0125 
    1.7929 	   27.5160 	   23.0000 	    1.0000 	   58.0495 
    2.0218 	   27.5345 	   23.0000 	    1.0000 	   58.0865 
    1.8692 	   27.5555 	   23.0000 	    1.0000 	   58.1285 
    1.8997 	   27.5750 	   23.0000 	    1.0000 	   58.1675 
    1.9608 	   27.5950 	   23.0000 	    1.0000 	   58.2075 
    1.8387 	   27.6130 	   23.0000 	    1.0000 	   58.2435 
    1.8387 	   27.6295 	   23.0000 	    1.0000 	   58.2765 
    1.7777 	   27.6475 	   23.0000 	    1.0000 	   58.3125 
    1.8997 	   27.6660 	   23.0000 	    1.0000 	   58.3495 
    1.8235 	   27.6830 	   23.0000 	    1.0000 	   58.3835 
    1.7014 	   27.7005 	   23.0000 	    1.0000 	   58.4185 
    1.9303 	   27.7195 	   23.0000 	    1.0000 	   58.4565 
    1.8235 	   27.7375 	   23.0000 	    1.0000 	   58.4925 
    1.7472 	   27.7550 	   23.0000 	    1.0000 	   58.5276 
    1.8387 	   27.7740 	   23.0000 	    1.0000 	   58.5656 
    1.7929 	   27.7940 	   23.0000 	    1.0000 	   58.6056 
    1.8235 	   27.8125 	   23.0000 	    1.0000 	   58.6426 
    1.7624 	   27.8305 	   23.0000 	    1.0000 	   58.6786 
    1.6251 	   27.8490 	   23.0000 	    1.0000 	   58.7156 
    1.6556 	   27.8685 	   23.0000 	    1.0000 	   58.7546 
    1.9303 	   27.8875 	   23.0000 	    1.0000 	   58.7926 
    1.9608 	   27.9070 	   23.0000 	    1.0000 	   58.8316 
    1.9455 	   27.9250 	   23.0000 	    1.0000 	   58.8676 
    1.8845 	   27.9435 	   23.0000 	    1.0000 	   58.9046 
    2.0218 	   27.9630 	   23.0000 	    1.0000 	   58.9436 
    1.9150 	   27.9825 	   23.0000 	    1.0000 	   58.9826 
    1.8082 	   28.0010 	   23.0000 	    1.0000 	   59.0196 
    1.7624 	   28.0205 	   23.0000 	    1.0000 	   59.0586 
    1.8387 	   28.0410 	   23.0000 	    1.0000 	   59.0996 
    1.9608 	   28.0615 	   23.0000 	    1.0000 	   59.1406 
    1.5183 	   28.0790 	   23.0000 	    1.0000 	   59.1756 
    1.8692 	   28.0985 	   23.0000 	    1.0000 	   59.2146 
    1.8387 	   28.1185 	   23.0000 	    1.0000 	   59.2546 
    1.7929 	   28.1365 	   23.0000 	    1.0000 	   59.2906 
    1.8845 	   28.1555 	   23.0000 	    1.0000 	   59.3286 
    1.5488 	   28.1745 	   23.0000 	    1.0000 	   59.3666 
    1.8387 	   28.1930 	   23.0000 	    1.0000 	   59.4036 
    1.7624 	   28.2130 	   23.0000 	    1.0000 	   59.4436 
    1.8387 	   28.2325 	   23.0000 	    1.0000 	   59.4826 
    1.7777 	   28.2515 	   23.0000 	    1.0000 	   59.5206 
    1.5183 	   28.2705 	   23.0000 	    1.0000 	   59.5586 
    1.7929 	   28.2895 	   23.0000 	    1.0000 	   59.5966 
    1.8540 	   28.3075 	   23.0000 	    1.0000 	   59.6326 
    2.0523 	   28.3260 	   23.0000 	    1.0000 	   59.6696 
    2.0066 	   28.3435 	   23.0000 	    1.0000 	   59.7046 
    1.9455 	   28.3625 	   23.0000 	    1.0000 	   59.7426 
    1.8692 	   28.3805 	   23.0000 	    1.0000 	   59.7786 
    1.8692 	   28.3995 	   23.0000 	    1.0000 	   59.8166 
    1.9913 	   28.4200 	   23.0000 	    1.0000 	   59.8576 
    1.8692 	   28.4390 	   23.0000 	    1.0000 	   59.8956 
    1.8540 	   28.4580 	   23.0000 	    1.0000 	   59.9336 
    1.7472 	   28.4790 	   23.0000 	    1.0000 	   59.9756 
    1.7929 	   28.4990 	   23.0000 	    2.0000 	    0.0156 
    1.8540 	   28.5175 	   23.0000 	    2.0000 	    0.0526 
    1.9913 	   28.5375 	   23.0000 	    2.0000 	    0.0926 
    2.0371 	   28.5580 	   23.0000 	    2.0000 	    0.1336 
    1.8082 	   28.5775 	   23.0000 	    2.0000 	    0.1726 
    1.9303 	   28.5965 	   23.0000 	    2.0000 	    0.2106 
    1.8692 	   28.6155 	   23.0000 	    2.0000 	    0.2487 
    1.8082 	   28.6360 	   23.0000 	    2.0000 	    0.2897 
    1.8997 	   28.6545 	   23.0000 	    2.0000 	    0.3267 
    1.8997 	   28.6740 	   23.0000 	    2.0000 	    0.3647 
    2.0066 	   28.6925 	   23.0000 	    2.0000 	    0.4027 
    1.7777 	   28.7120 	   23.0000 	    2.0000 	    0.4417 
    1.8845 	   28.7300 	   23.0000 	    2.0000 	    0.4777 
    1.8540 	   28.7505 	   23.0000 	    2.0000 	    0.5187 
    1.9608 	   28.7705 	   23.0000 	    2.0000 	    0.5587 
    1.8235 	   28.7895 	   23.0000 	    2.0000 	    0.5967 
    1.9150 	   28.8085 	   23.0000 	    2.0000 	    0.6347 
    1.8997 	   28.8275 	   23.0000 	    2.0000 	    0.6727 
    1.7319 	   28.8465 	   23.0000 	    2.0000 	    0.7107 
    1.8540 	   28.8655 	   23.0000 	    2.0000 	    0.7487 
    1.8082 	   28.8840 	   23.0000 	    2.0000 	    0.7857 
    1.8540 	   28.9035 	   23.0000 	    2.0000 	    0.8247 
    1.9455 	   28.9235 	   23.0000 	    2.0000 	    0.8647 
    1.6709 	   28.9435 	   23.0000 	    2.0000 	    0.9047 
    1.8082 	   28.9630 	   23.0000 	    2.0000 	    0.9437 
    2.0066 	   28.9820 	   23.0000 	    2.0000 	    0.9817 
    1.8692 	   29.0000 	   23.0000 	    2.0000 	    1.0177 
    1.7929 	   29.0190 	   23.0000 	    2.0000 	    1.0557 
    1.8997 	   29.0400 	   23.0000 	    2.0000 	    1.0977 
    1.8082 	   29.0590 	   23.0000 	    2.0000 	    1.1357 
    2.0829 	   29.0785 	   23.0000 	    2.0000 	    1.1747 
    1.9913 	   29.0970 	   23.0000 	    2.0000 	    1.2117 
    1.9608 	   29.1170 	   23.0000 	    2.0000 	    1.2517 
    1.8845 	   29.1360 	   23.0000 	    2.0000 	    1.2887 
    1.6556 	   29.1545 	   23.0000 	    2.0000 	    1.3257 
    1.8387 	   29.1730 	   23.0000 	    2.0000 	    1.3627 
    1.8845 	   29.1915 	   23.0000 	    2.0000 	    1.3997 
    2.0066 	   29.2105 	   23.0000 	    2.0000 	    1.4377 
    1.5640 	   29.2290 	   23.0000 	    2.0000 	    1.4747 
    1.8387 	   29.2460 	   23.0000 	    2.0000 	    1.5087 
    2.0523 	   29.2645 	   23.0000 	    2.0000 	    1.5457 
    1.8235 	   29.2840 	   23.0000 	    2.0000 	    1.5847 
    1.8387 	   29.3030 	   23.0000 	    2.0000 	    1.6227 
    1.9455 	   29.3215 	   23.0000 	    2.0000 	    1.6597 
    2.0523 	   29.3410 	   23.0000 	    2.0000 	    1.6987 
    1.9608 	   29.3600 	   23.0000 	    2.0000 	    1.7367 
    1.8997 	   29.3795 	   23.0000 	    2.0000 	    1.7757 
    1.8997 	   29.3970 	   23.0000 	    2.0000 	    1.8107 
    1.8692 	   29.4145 	   23.0000 	    2.0000 	    1.8457 
    1.8692 	   29.4315 	   23.0000 	    2.0000 	    1.8797 
    1.9303 	   29.4485 	   23.0000 	    2.0000 	    1.9137 
    1.8997 	   29.4650 	   23.0000 	    2.0000 	    1.9467 
    2.0523 	   29.4820 	   23.0000 	    2.0000 	    1.9807 
    1.9608 	   29.4995 	   23.0000 	    2.0000 	    2.0158 
    1.9913 	   29.5170 	   23.0000 	    2.0000 	    2.0508 
    1.9608 	   29.5345 	   23.0000 	    2.0000 	    2.0858 
    2.0676 	   29.5535 	   23.0000 	    2.0000 	    2.1238 
    1.9608 	   29.5705 	   23.0000 	    2.0000 	    2.1578 
    1.9455 	   29.5880 	   23.0000 	    2.0000 	    2.1928 
    1.9150 	   29.6055 	   23.0000 	    2.0000 	    2.2278 
    1.9455 	   29.6230 	   23.0000 	    2.0000 	    2.2628 
    1.9608 	   29.6400 	   23.0000 	    2.0000 	    2.2968 
    2.0523 	   29.6570 	   23.0000 	    2.0000 	    2.3308 
    1.9608 	   29.6740 	   23.0000 	    2.0000 	    2.3648 
    2.0676 	   29.6915 	   23.0000 	    2.0000 	    2.3998 
    2.0523 	   29.7095 	   23.0000 	    2.0000 	    2.4358 
    1.8845 	   29.7285 	   23.0000 	    2.0000 	    2.4738 
    1.8997 	   29.7480 	   23.0000 	    2.0000 	    2.5128 
    1.9455 	   29.7670 	   23.0000 	    2.0000 	    2.5508 
    1.9303 	   29.7855 	   23.0000 	    2.0000 	    2.5878 
    1.9303 	   29.8050 	   23.0000 	    2.0000 	    2.6268 
    1.6861 	   29.8250 	   23.0000 	    2.0000 	    2.6668 
    1.8082 	   29.8445 	   23.0000 	    2.0000 	    2.7058 
    1.9608 	   29.8640 	   23.0000 	    2.0000 	    2.7448 
    2.0218 	   29.8825 	   23.0000 	    2.0000 	    2.7818 
    1.8235 	   29.9015 	   23.0000 	    2.0000 	    2.8198 
    2.0218 	   29.9215 	   23.0000 	    2.0000 	    2.8598 
    1.8540 	   29.9405 	   23.0000 	    2.0000 	    2.8978 
    2.0066 	   29.9605 	   23.0000 	    2.0000 	    2.9378 
    1.9760 	   29.9810 	   23.0000 	    2.0000 	    2.9788 
    1.9303 	   30.0010 	   23.0000 	    2.0000 	    3.0188 
    1.8845 	   30.0200 	   23.0000 	    2.0000 	    3.0568 
    2.0371 	   30.0405 	   23.0000 	    2.0000 	    3.0978 
    2.0523 	   30.0595 	   23.0000 	    2.0000 	    3.1358 
    2.0829 	   30.0780 	   23.0000 	    2.0000 	    3.1728 
    1.8540 	   30.0975 	   23.0000 	    2.0000 	    3.2118 
    1.9150 	   30.1165 	   23.0000 	    2.0000 	    3.2498 
    1.9455 	   30.1350 	   23.0000 	    2.0000 	    3.2868 
    2.1286 	   30.1535 	   23.0000 	    2.0000 	    3.3238 
    2.1134 	   30.1735 	   23.0000 	    2.0000 	    3.3638 
    1.9303 	   30.1935 	   23.0000 	    2.0000 	    3.4038 
    2.0829 	   30.2120 	   23.0000 	    2.0000 	    3.4408 
    1.9303 	   30.2305 	   23.0000 	    2.0000 	    3.4778 
    1.8235 	   30.2495 	   23.0000 	    2.0000 	    3.5158 
    1.8997 	   30.2685 	   23.0000 	    2.0000 	    3.5538 
    1.8692 	   30.2880 	   23.0000 	    2.0000 	    3.5928 
    1.7777 	   30.3065 	   23.0000 	    2.0000 	    3.6298 
    1.9303 	   30.3250 	   23.0000 	    2.0000 	    3.6668 
    1.8387 	   30.3440 	   23.0000 	    2.0000 	    3.7048 
    1.9150 	   30.3635 	   23.0000 	    2.0000 	    3.7439 
    2.0523 	   30.3835 	   23.0000 	    2.0000 	    3.7839 
    2.0829 	   30.4035 	   23.0000 	    2.0000 	    3.8239 
    1.8692 	   30.4220 	   23.0000 	    2.0000 	    3.8609 
    1.9608 	   30.4415 	   23.0000 	    2.0000 	    3.8999 
    1.9608 	   30.4600 	   23.0000 	    2.0000 	    3.9369 
    1.8692 	   30.4780 	   23.0000 	    2.0000 	    3.9729 
    1.9303 	   30.4975 	   23.0000 	    2.0000 	    4.0119 
    1.9760 	   30.5155 	   23.0000 	    2.0000 	    4.0479 
    2.0523 	   30.5350 	   23.0000 	    2.0000 	    4.0869 
    1.8387 	   30.5535 	   23.0000 	    2.0000 	    4.1239 
    2.0066 	   30.5730 	   23.0000 	    2.0000 	    4.1629 
    1.8235 	   30.5930 	   23.0000 	    2.0000 	    4.2029 
    2.0829 	   30.6120 	   23.0000 	    2.0000 	    4.2409 
    1.5488 	   30.6310 	   23.0000 	    2.0000 	    4.2789 
    1.9455 	   30.6495 	   23.0000 	    2.0000 	    4.3159 
    1.7929 	   30.6660 	   23.0000 	    2.0000 	    4.3489 
    1.8845 	   30.6845 	   23.0000 	    2.0000 	    4.3859 
    2.0829 	   30.7040 	   23.0000 	    2.0000 	    4.4249 
    1.8692 	   30.7235 	   23.0000 	    2.0000 	    4.4639 
    1.9303 	   30.7425 	   23.0000 	    2.0000 	    4.5019 
    2.1439 	   30.7620 	   23.0000 	    2.0000 	    4.5409 
    2.0981 	   30.7815 	   23.0000 	    2.0000 	    4.5799 
    1.9455 	   30.8015 	   23.0000 	    2.0000 	    4.6199 
    1.8845 	   30.8215 	   23.0000 	    2.0000 	    4.6589 
    1.9760 	   30.8400 	   23.0000 	    2.0000 	    4.6969 
    2.0676 	   30.8595 	   23.0000 	    2.0000 	    4.7359 
    1.9913 	   30.8795 	   23.0000 	    2.0000 	    4.7759 
    1.9303 	   30.8990 	   23.0000 	    2.0000 	    4.8149 
    2.1592 	   30.9180 	   23.0000 	    2.0000 	    4.8529 
    2.0218 	   30.9375 	   23.0000 	    2.0000 	    4.8919 
    1.9913 	   30.9570 	   23.0000 	    2.0000 	    4.9309 
    2.0523 	   30.9760 	   23.0000 	    2.0000 	    4.9689 
    2.1439 	   30.9950 	   23.0000 	    2.0000 	    5.0069 
    1.9608 	   31.0135 	   23.0000 	    2.0000 	    5.0439 
    2.0676 	   31.0330 	   23.0000 	    2.0000 	    5.0829 
    1.8387 	   31.0535 	   23.0000 	    2.0000 	    5.1239 
    2.0371 	   31.0720 	   23.0000 	    2.0000 	    5.1609 
    1.6861 	   31.0915 	   23.0000 	    2.0000 	    5.1999 
    2.0676 	   31.1105 	   23.0000 	    2.0000 	    5.2379 
    1.9608 	   31.1290 	   23.0000 	    2.0000 	    5.2749 
    1.8845 	   31.1465 	   23.0000 	    2.0000 	    5.3099 
    1.9608 	   31.1660 	   23.0000 	    2.0000 	    5.3489 
    2.0523 	   31.1835 	   23.0000 	    2.0000 	    5.3839 
    2.0371 	   31.2005 	   23.0000 	    2.0000 	    5.4179 
    2.0676 	   31.2195 	   23.0000 	    2.0000 	    5.4559 
    1.9760 	   31.2375 	   23.0000 	    2.0000 	    5.4920 
    1.9913 	   31.2545 	   23.0000 	    2.0000 	    5.5260 
    1.9608 	   31.2730 	   23.0000 	    2.0000 	    5.5630 
    2.0523 	   31.2925 	   23.0000 	    2.0000 	    5.6020 
    2.0218 	   31.3105 	   23.0000 	    2.0000 	    5.6380 
    1.7929 	   31.3300 	   23.0000 	    2.0000 	    5.6770 
    2.0981 	   31.3485 	   23.0000 	    2.0000 	    5.7140 
    1.9608 	   31.3665 	   23.0000 	    2.0000 	    5.7500 
    1.9760 	   31.3845 	   23.0000 	    2.0000 	    5.7860 
    2.0676 	   31.4015 	   23.0000 	    2.0000 	    5.8200 
    2.1592 	   31.4190 	   23.0000 	    2.0000 	    5.8550 
    2.0066 	   31.4365 	   23.0000 	    2.0000 	    5.8900 
    1.9608 	   31.4540 	   23.0000 	    2.0000 	    5.9250 
    2.0218 	   31.4725 	   23.0000 	    2.0000 	    5.9620 
    2.1744 	   31.4920 	   23.0000 	    2.0000 	    6.0010 
    2.1592 	   31.5120 	   23.0000 	    2.0000 	    6.0410 
    2.0829 	   31.5305 	   23.0000 	    2.0000 	    6.0780 
    2.1286 	   31.5490 	   23.0000 	    2.0000 	    6.1150 
    2.0829 	   31.5685 	   23.0000 	    2.0000 	    6.1540 
    2.0066 	   31.5865 	   23.0000 	    2.0000 	    6.1900 
    2.0371 	   31.6055 	   23.0000 	    2.0000 	    6.2280 
    2.0066 	   31.6245 	   23.0000 	    2.0000 	    6.2660 
    1.9608 	   31.6435 	   23.0000 	    2.0000 	    6.3040 
    2.0829 	   31.6635 	   23.0000 	    2.0000 	    6.3440 
    2.1439 	   31.6835 	   23.0000 	    2.0000 	    6.3840 
    2.0676 	   31.7020 	   23.0000 	    2.0000 	    6.4210 
    1.8082 	   31.7205 	   23.0000 	    2.0000 	    6.4580 
    2.0066 	   31.7400 	   23.0000 	    2.0000 	    6.4970 
    2.0066 	   31.7595 	   23.0000 	    2.0000 	    6.5360 
    2.1439 	   31.7785 	   23.0000 	    2.0000 	    6.5740 
    2.0371 	   31.7980 	   23.0000 	    2.0000 	    6.6130 
    1.9303 	   31.8180 	   23.0000 	    2.0000 	    6.6530 
    2.0981 	   31.8370 	   23.0000 	    2.0000 	    6.6910 
    2.2049 	   31.8575 	   23.0000 	    2.0000 	    6.7320 
    1.8540 	   31.8770 	   23.0000 	    2.0000 	    6.7710 
    2.1592 	   31.8980 	   23.0000 	    2.0000 	    6.8130 
    2.1744 	   31.9180 	   23.0000 	    2.0000 	    6.8530 
    2.2049 	   31.9375 	   23.0000 	    2.0000 	    6.8920 
    2.0829 	   31.9565 	   23.0000 	    2.0000 	    6.9300 
    2.1134 	   31.9760 	   23.0000 	    2.0000 	    6.9690 
    2.1439 	   31.9965 	   23.0000 	    2.0000 	    7.0100 
    2.0218 	   32.0165 	   23.0000 	    2.0000 	    7.0500 
    2.0371 	   32.0355 	   23.0000 	    2.0000 	    7.0880 
    2.0981 	   32.0575 	   23.0000 	    2.0000 	    7.1320 
    2.1134 	   32.0785 	   23.0000 	    2.0000 	    7.1740 
    2.2049 	   32.0985 	   23.0000 	    2.0000 	    7.2140 
    2.0981 	   32.1180 	   23.0000 	    2.0000 	    7.2531 
    2.2507 	   32.1380 	   23.0000 	    2.0000 	    7.2931 
    2.0829 	   32.1575 	   23.0000 	    2.0000 	    7.3321 
    2.2354 	   32.1775 	   23.0000 	    2.0000 	    7.3721 
    2.1134 	   32.1965 	   23.0000 	    2.0000 	    7.4101 
    2.0829 	   32.2165 	   23.0000 	    2.0000 	    7.4501 
    2.0981 	   32.2355 	   23.0000 	    2.0000 	    7.4881 
    2.0066 	   32.2550 	   23.0000 	    2.0000 	    7.5271 
    2.1134 	   32.2735 	   23.0000 	    2.0000 	    7.5641 
    1.9913 	   32.2930 	   23.0000 	    2.0000 	    7.6031 
    2.0218 	   32.3120 	   23.0000 	    2.0000 	    7.6411 
    1.9608 	   32.3300 	   23.0000 	    2.0000 	    7.6771 
    2.0523 	   32.3490 	   23.0000 	    2.0000 	    7.7151 
    1.9455 	   32.3685 	   23.0000 	    2.0000 	    7.7541 
    2.0829 	   32.3880 	   23.0000 	    2.0000 	    7.7931 
    2.0676 	   32.4085 	   23.0000 	    2.0000 	    7.8341 
    2.1134 	   32.4285 	   23.0000 	    2.0000 	    7.8741 
    1.9455 	   32.4485 	   23.0000 	    2.0000 	    7.9141 
    2.0981 	   32.4685 	   23.0000 	    2.0000 	    7.9541 
    2.0829 	   32.4895 	   23.0000 	    2.0000 	    7.9961 
    2.0218 	   32.5080 	   23.0000 	    2.0000 	    8.0331 
    2.0829 	   32.5275 	   23.0000 	    2.0000 	    8.0721 
    2.0829 	   32.5480 	   23.0000 	    2.0000 	    8.1131 
    2.0676 	   32.5675 	   23.0000 	    2.0000 	    8.1521 
    2.2202 	   32.5865 	   23.0000 	    2.0000 	    8.1901 
    2.1744 	   32.6065 	   23.0000 	    2.0000 	    8.2301 
    2.1134 	   32.6250 	   23.0000 	    2.0000 	    8.2671 
    2.1744 	   32.6445 	   23.0000 	    2.0000 	    8.3061 
    2.0829 	   32.6640 	   23.0000 	    2.0000 	    8.3451 
    2.1439 	   32.6825 	   23.0000 	    2.0000 	    8.3821 
    2.0371 	   32.7025 	   23.0000 	    2.0000 	    8.4221 
    2.1897 	   32.7220 	   23.0000 	    2.0000 	    8.4611 
    2.2049 	   32.7420 	   23.0000 	    2.0000 	    8.5011 
    2.1286 	   32.7620 	   23.0000 	    2.0000 	    8.5411 
    2.0218 	   32.7825 	   23.0000 	    2.0000 	    8.5821 
    2.1134 	   32.8025 	   23.0000 	    2.0000 	    8.6221 
    2.1134 	   32.8225 	   23.0000 	    2.0000 	    8.6621 
    2.0523 	   32.8410 	   23.0000 	    2.0000 	    8.6991 
    2.0371 	   32.8605 	   23.0000 	    2.0000 	    8.7381 
    2.2965 	   32.8800 	   23.0000 	    2.0000 	    8.7771 
    2.1286 	   32.8995 	   23.0000 	    2.0000 	    8.8161 
    2.1744 	   32.9190 	   23.0000 	    2.0000 	    8.8551 
    2.1134 	   32.9385 	   23.0000 	    2.0000 	    8.8941 
    2.0676 	   32.9590 	   23.0000 	    2.0000 	    8.9351 
    2.1439 	   32.9780 	   23.0000 	    2.0000 	    8.9732 
    2.2507 	   32.9975 	   23.0000 	    2.0000 	    9.0122 
    2.1744 	   33.0170 	   23.0000 	    2.0000 	    9.0512 
    2.0218 	   33.0365 	   23.0000 	    2.0000 	    9.0902 
    2.2507 	   33.0575 	   23.0000 	    2.0000 	    9.1322 
    2.1744 	   33.0775 	   23.0000 	    2.0000 	    9.1722 
    2.0218 	   33.0980 	   23.0000 	    2.0000 	    9.2132 
    2.2507 	   33.1165 	   23.0000 	    2.0000 	    9.2502 
    2.1286 	   33.1380 	   23.0000 	    2.0000 	    9.2932 
    2.0981 	   33.1585 	   23.0000 	    2.0000 	    9.3342 
    2.0829 	   33.1780 	   23.0000 	    2.0000 	    9.3732 
    2.2354 	   33.1985 	   23.0000 	    2.0000 	    9.4142 
    1.9150 	   33.2190 	   23.0000 	    2.0000 	    9.4552 
    2.2507 	   33.2385 	   23.0000 	    2.0000 	    9.4942 
    2.1286 	   33.2585 	   23.0000 	    2.0000 	    9.5342 
    2.0829 	   33.2790 	   23.0000 	    2.0000 	    9.5752 
    2.2049 	   33.2980 	   23.0000 	    2.0000 	    9.6132 
    2.0676 	   33.3205 	   23.0000 	    2.0000 	    9.6582 
    2.2812 	   33.3420 	   23.0000 	    2.0000 	    9.7012 
    2.0676 	   33.3620 	   23.0000 	    2.0000 	    9.7412 
    2.2354 	   33.3810 	   23.0000 	    2.0000 	    9.7792 
    2.1286 	   33.4000 	   23.0000 	    2.0000 	    9.8172 
    2.1439 	   33.4210 	   23.0000 	    2.0000 	    9.8592 
    2.1439 	   33.4420 	   23.0000 	    2.0000 	    9.9012 
    2.1439 	   33.4620 	   23.0000 	    2.0000 	    9.9412 
    2.1592 	   33.4815 	   23.0000 	    2.0000 	    9.9802 
    2.3270 	   33.5010 	   23.0000 	    2.0000 	   10.0192 
    2.2049 	   33.5210 	   23.0000 	    2.0000 	   10.0592 
    2.0829 	   33.5440 	   23.0000 	    2.0000 	   10.1052 
    2.0981 	   33.5635 	   23.0000 	    2.0000 	   10.1442 
    2.0981 	   33.5825 	   23.0000 	    2.0000 	   10.1822 
    2.2812 	   33.6025 	   23.0000 	    2.0000 	   10.2222 
    2.2049 	   33.6230 	   23.0000 	    2.0000 	   10.2632 
    2.0981 	   33.6435 	   23.0000 	    2.0000 	   10.3042 
    2.1592 	   33.6630 	   23.0000 	    2.0000 	   10.3432 
    2.3270 	   33.6840 	   23.0000 	    2.0000 	   10.3852 
    2.0981 	   33.7030 	   23.0000 	    2.0000 	   10.4232 
    2.1744 	   33.7225 	   23.0000 	    2.0000 	   10.4622 
    2.2354 	   33.7420 	   23.0000 	    2.0000 	   10.5012 
    2.1744 	   33.7600 	   23.0000 	    2.0000 	   10.5372 
    2.1134 	   33.7795 	   23.0000 	    2.0000 	   10.5762 
    2.1286 	   33.7990 	   23.0000 	    2.0000 	   10.6152 
    2.1897 	   33.8185 	   23.0000 	    2.0000 	   10.6542 
    2.2354 	   33.8390 	   23.0000 	    2.0000 	   10.6952 
    2.1286 	   33.8590 	   23.0000 	    2.0000 	   10.7353 
    2.1439 	   33.8780 	   23.0000 	    2.0000 	   10.7733 
    2.0829 	   33.8980 	   23.0000 	    2.0000 	   10.8133 
    2.1744 	   33.9180 	   23.0000 	    2.0000 	   10.8533 
    2.2049 	   33.9370 	   23.0000 	    2.0000 	   10.8913 
    2.2202 	   33.9570 	   23.0000 	    2.0000 	   10.9313 
    2.0371 	   33.9765 	   23.0000 	    2.0000 	   10.9703 
    2.2202 	   33.9960 	   23.0000 	    2.0000 	   11.0093 
    2.1744 	   34.0160 	   23.0000 	    2.0000 	   11.0493 
    2.1134 	   34.0355 	   23.0000 	    2.0000 	   11.0883 
    2.3270 	   34.0580 	   23.0000 	    2.0000 	   11.1333 
    2.2202 	   34.0780 	   23.0000 	    2.0000 	   11.1733 
    2.1134 	   34.0980 	   23.0000 	    2.0000 	   11.2133 
    2.2354 	   34.1175 	   23.0000 	    2.0000 	   11.2523 
    1.9608 	   34.1380 	   23.0000 	    2.0000 	   11.2933 
    2.1744 	   34.1570 	   23.0000 	    2.0000 	   11.3313 
    2.2660 	   34.1765 	   23.0000 	    2.0000 	   11.3703 
    2.0218 	   34.1970 	   23.0000 	    2.0000 	   11.4113 
    2.1897 	   34.2170 	   23.0000 	    2.0000 	   11.4513 
    2.2660 	   34.2370 	   23.0000 	    2.0000 	   11.4913 
    2.2202 	   34.2570 	   23.0000 	    2.0000 	   11.5313 
    2.3728 	   34.2765 	   23.0000 	    2.0000 	   11.5703 
    2.0829 	   34.2960 	   23.0000 	    2.0000 	   11.6093 
    2.1592 	   34.3205 	   23.0000 	    2.0000 	   11.6583 
    2.2049 	   34.3410 	   23.0000 	    2.0000 	   11.6993 
    2.3728 	   34.3600 	   23.0000 	    2.0000 	   11.7373 
    2.2812 	   34.3790 	   23.0000 	    2.0000 	   11.7753 
    2.1439 	   34.3990 	   23.0000 	    2.0000 	   11.8153 
    1.8997 	   34.4200 	   23.0000 	    2.0000 	   11.8573 
    2.2202 	   34.4400 	   23.0000 	    2.0000 	   11.8973 
    2.2660 	   34.4605 	   23.0000 	    2.0000 	   11.9383 
    2.1744 	   34.4800 	   23.0000 	    2.0000 	   11.9773 
    2.2049 	   34.5000 	   23.0000 	    2.0000 	   12.0173 
    2.1134 	   34.5195 	   23.0000 	    2.0000 	   12.0563 
    2.1897 	   34.5385 	   23.0000 	    2.0000 	   12.0943 
    2.2354 	   34.5580 	   23.0000 	    2.0000 	   12.1333 
    2.0829 	   34.5780 	   23.0000 	    2.0000 	   12.1733 
    2.0371 	   34.5980 	   23.0000 	    2.0000 	   12.2133 
    2.2049 	   34.6180 	   23.0000 	    2.0000 	   12.2533 
    2.0981 	   34.6370 	   23.0000 	    2.0000 	   12.2913 
    2.0676 	   34.6580 	   23.0000 	    2.0000 	   12.3333 
    2.2049 	   34.6760 	   23.0000 	    2.0000 	   12.3693 
    2.2965 	   34.6960 	   23.0000 	    2.0000 	   12.4093 
    2.2965 	   34.7145 	   23.0000 	    2.0000 	   12.4463 
    2.1592 	   34.7350 	   23.0000 	    2.0000 	   12.4874 
    2.2965 	   34.7560 	   23.0000 	    2.0000 	   12.5294 
    2.2354 	   34.7760 	   23.0000 	    2.0000 	   12.5694 
    2.1897 	   34.7965 	   23.0000 	    2.0000 	   12.6104 
    2.2965 	   34.8165 	   23.0000 	    2.0000 	   12.6504 
    2.3575 	   34.8365 	   23.0000 	    2.0000 	   12.6904 
    2.3423 	   34.8565 	   23.0000 	    2.0000 	   12.7304 
    1.9913 	   34.8755 	   23.0000 	    2.0000 	   12.7684 
    2.2507 	   34.8945 	   23.0000 	    2.0000 	   12.8064 
    2.2049 	   34.9140 	   23.0000 	    2.0000 	   12.8454 
    2.2354 	   34.9340 	   23.0000 	    2.0000 	   12.8854 
    2.2507 	   34.9530 	   23.0000 	    2.0000 	   12.9234 
    2.2965 	   34.9730 	   23.0000 	    2.0000 	   12.9634 
    2.3728 	   34.9930 	   23.0000 	    2.0000 	   13.0034 
    2.3423 	   35.0135 	   23.0000 	    2.0000 	   13.0444 
    2.1744 	   35.0340 	   23.0000 	    2.0000 	   13.0854 
    2.2660 	   35.0545 	   23.0000 	    2.0000 	   13.1264 
    2.2507 	   35.0740 	   23.0000 	    2.0000 	   13.1654 
    2.3728 	   35.0950 	   23.0000 	    2.0000 	   13.2074 
    2.2049 	   35.1150 	   23.0000 	    2.0000 	   13.2474 
    2.3270 	   35.1350 	   23.0000 	    2.0000 	   13.2874 
    2.2965 	   35.1545 	   23.0000 	    2.0000 	   13.3264 
    2.2202 	   35.1750 	   23.0000 	    2.0000 	   13.3674 
    2.2660 	   35.1940 	   23.0000 	    2.0000 	   13.4054 
    2.2812 	   35.2130 	   23.0000 	    2.0000 	   13.4434 
    2.3270 	   35.2335 	   23.0000 	    2.0000 	   13.4844 
    2.0523 	   35.2520 	   23.0000 	    2.0000 	   13.5214 
    2.1439 	   35.2735 	   23.0000 	    2.0000 	   13.5644 
    2.2812 	   35.2940 	   23.0000 	    2.0000 	   13.6054 
    2.2507 	   35.3205 	   23.0000 	    2.0000 	   13.6584 
    2.0371 	   35.3400 	   23.0000 	    2.0000 	   13.6974 
    2.1439 	   35.3605 	   23.0000 	    2.0000 	   13.7384 
    2.2507 	   35.3795 	   23.0000 	    2.0000 	   13.7764 
    2.3575 	   35.3995 	   23.0000 	    2.0000 	   13.8164 
    2.2965 	   35.4190 	   23.0000 	    2.0000 	   13.8554 
    2.3575 	   35.4395 	   23.0000 	    2.0000 	   13.8964 
    2.3270 	   35.4605 	   23.0000 	    2.0000 	   13.9384 
    2.2049 	   35.4795 	   23.0000 	    2.0000 	   13.9764 
    2.2049 	   35.4995 	   23.0000 	    2.0000 	   14.0164 
    2.3270 	   35.5185 	   23.0000 	    2.0000 	   14.0544 
    2.2049 	   35.5380 	   23.0000 	    2.0000 	   14.0934 
    2.2507 	   35.5575 	   23.0000 	    2.0000 	   14.1324 
    2.2660 	   35.5770 	   23.0000 	    2.0000 	   14.1714 
    2.4796 	   35.5975 	   23.0000 	    2.0000 	   14.2124 
    2.3880 	   35.6175 	   23.0000 	    2.0000 	   14.2525 
    2.1897 	   35.6390 	   23.0000 	    2.0000 	   14.2955 
    2.3880 	   35.6585 	   23.0000 	    2.0000 	   14.3345 
    2.2202 	   35.6790 	   23.0000 	    2.0000 	   14.3755 
    2.3270 	   35.6985 	   23.0000 	    2.0000 	   14.4145 
    2.2049 	   35.7175 	   23.0000 	    2.0000 	   14.4525 
    2.3270 	   35.7360 	   23.0000 	    2.0000 	   14.4895 
    2.1592 	   35.7555 	   23.0000 	    2.0000 	   14.5285 
    2.2354 	   35.7755 	   23.0000 	    2.0000 	   14.5685 
    2.2507 	   35.7960 	   23.0000 	    2.0000 	   14.6095 
    2.3117 	   35.8160 	   23.0000 	    2.0000 	   14.6495 
    2.2965 	   35.8360 	   23.0000 	    2.0000 	   14.6895 
    2.3880 	   35.8565 	   23.0000 	    2.0000 	   14.7305 
    2.4186 	   35.8765 	   23.0000 	    2.0000 	   14.7705 
    2.2507 	   35.8970 	   23.0000 	    2.0000 	   14.8115 
    2.3575 	   35.9155 	   23.0000 	    2.0000 	   14.8485 
    2.2354 	   35.9350 	   23.0000 	    2.0000 	   14.8875 
    2.4338 	   35.9555 	   23.0000 	    2.0000 	   14.9285 
    1.9150 	   35.9755 	   23.0000 	    2.0000 	   14.9685 
    1.9303 	   35.9950 	   23.0000 	    2.0000 	   15.0075 
    2.2354 	   36.0150 	   23.0000 	    2.0000 	   15.0475 
    2.3575 	   36.0340 	   23.0000 	    2.0000 	   15.0855 
    1.9913 	   36.0555 	   23.0000 	    2.0000 	   15.1285 
    2.2202 	   36.0765 	   23.0000 	    2.0000 	   15.1705 
    2.3270 	   36.0960 	   23.0000 	    2.0000 	   15.2095 
    2.1744 	   36.1160 	   23.0000 	    2.0000 	   15.2495 
    2.2049 	   36.1360 	   23.0000 	    2.0000 	   15.2895 
    2.4033 	   36.1555 	   23.0000 	    2.0000 	   15.3285 
    2.3270 	   36.1760 	   23.0000 	    2.0000 	   15.3695 
    2.3880 	   36.1960 	   23.0000 	    2.0000 	   15.4095 
    2.3117 	   36.2150 	   23.0000 	    2.0000 	   15.4475 
    2.2354 	   36.2345 	   23.0000 	    2.0000 	   15.4865 
    2.2049 	   36.2525 	   23.0000 	    2.0000 	   15.5225 
    2.2812 	   36.2715 	   23.0000 	    2.0000 	   15.5605 
    2.2354 	   36.2920 	   23.0000 	    2.0000 	   15.6015 
    2.3117 	   36.3105 	   23.0000 	    2.0000 	   15.6385 
    2.3270 	   36.3300 	   23.0000 	    2.0000 	   15.6775 
    2.2507 	   36.3510 	   23.0000 	    2.0000 	   15.7195 
    2.2354 	   36.3710 	   23.0000 	    2.0000 	   15.7595 
    2.3270 	   36.3905 	   23.0000 	    2.0000 	   15.7985 
    2.3575 	   36.4105 	   23.0000 	    2.0000 	   15.8385 
    2.4033 	   36.4300 	   23.0000 	    2.0000 	   15.8775 
    2.3880 	   36.4505 	   23.0000 	    2.0000 	   15.9185 
    2.3423 	   36.4705 	   23.0000 	    2.0000 	   15.9585 
    2.3270 	   36.4910 	   23.0000 	    2.0000 	   15.9996 
    2.3880 	   36.5110 	   23.0000 	    2.0000 	   16.0396 
    2.1897 	   36.5315 	   23.0000 	    2.0000 	   16.0806 
    2.3270 	   36.5505 	   23.0000 	    2.0000 	   16.1186 
    2.3423 	   36.5705 	   23.0000 	    2.0000 	   16.1586 
    2.3270 	   36.5905 	   23.0000 	    2.0000 	   16.1986 
    2.3270 	   36.6110 	   23.0000 	    2.0000 	   16.2396 
    2.2202 	   36.6320 	   23.0000 	    2.0000 	   16.2816 
    2.2812 	   36.6520 	   23.0000 	    2.0000 	   16.3216 
    2.2965 	   36.6715 	   23.0000 	    2.0000 	   16.3606 
    2.4796 	   36.6920 	   23.0000 	    2.0000 	   16.4016 
    2.4186 	   36.7140 	   23.0000 	    2.0000 	   16.4456 
    2.2202 	   36.7345 	   23.0000 	    2.0000 	   16.4866 
    2.0523 	   36.7545 	   23.0000 	    2.0000 	   16.5266 
    2.3423 	   36.7750 	   23.0000 	    2.0000 	   16.5676 
    2.2507 	   36.7965 	   23.0000 	    2.0000 	   16.6096 
    2.4491 	   36.8165 	   23.0000 	    2.0000 	   16.6506 
    2.2965 	   36.8375 	   23.0000 	    2.0000 	   16.6916 
    2.4796 	   36.8565 	   23.0000 	    2.0000 	   16.7306 
    2.3575 	   36.8770 	   23.0000 	    2.0000 	   16.7716 
    2.3423 	   36.8970 	   23.0000 	    2.0000 	   16.8116 
    2.2660 	   36.9165 	   23.0000 	    2.0000 	   16.8506 
    2.2965 	   36.9365 	   23.0000 	    2.0000 	   16.8906 
    2.4491 	   36.9555 	   23.0000 	    2.0000 	   16.9286 
    2.3270 	   36.9755 	   23.0000 	    2.0000 	   16.9686 
    2.4033 	   36.9945 	   23.0000 	    2.0000 	   17.0066 
    2.1439 	   37.0125 	   23.0000 	    2.0000 	   17.0426 
    2.3728 	   37.0300 	   23.0000 	    2.0000 	   17.0776 
    2.2965 	   37.0500 	   23.0000 	    2.0000 	   17.1176 
    2.3728 	   37.0675 	   23.0000 	    2.0000 	   17.1526 
    2.3270 	   37.0855 	   23.0000 	    2.0000 	   17.1886 
    2.3270 	   37.1045 	   23.0000 	    2.0000 	   17.2266 
    2.4948 	   37.1225 	   23.0000 	    2.0000 	   17.2626 
    2.2812 	   37.1405 	   23.0000 	    2.0000 	   17.2986 
    2.3880 	   37.1585 	   23.0000 	    2.0000 	   17.3346 
    2.2660 	   37.1765 	   23.0000 	    2.0000 	   17.3706 
    2.4491 	   37.1960 	   23.0000 	    2.0000 	   17.4096 
    2.3270 	   37.2150 	   23.0000 	    2.0000 	   17.4476 
    2.1134 	   37.2325 	   23.0000 	    2.0000 	   17.4826 
    2.3117 	   37.2515 	   23.0000 	    2.0000 	   17.5206 
    2.2354 	   37.2705 	   23.0000 	    2.0000 	   17.5586 
    2.4796 	   37.2880 	   23.0000 	    2.0000 	   17.5936 
    2.3270 	   37.3055 	   23.0000 	    2.0000 	   17.6286 
    2.3575 	   37.3255 	   23.0000 	    2.0000 	   17.6686 
    2.4033 	   37.3450 	   23.0000 	    2.0000 	   17.7076 
    2.2354 	   37.3650 	   23.0000 	    2.0000 	   17.7477 
    2.3423 	   37.3865 	   23.0000 	    2.0000 	   17.7907 
    2.3575 	   37.4055 	   23.0000 	    2.0000 	   17.8287 
    2.3423 	   37.4270 	   23.0000 	    2.0000 	   17.8717 
    1.9455 	   37.4470 	   23.0000 	    2.0000 	   17.9117 
    2.3575 	   37.4670 	   23.0000 	    2.0000 	   17.9517 
    2.4643 	   37.4870 	   23.0000 	    2.0000 	   17.9917 
    2.3423 	   37.5065 	   23.0000 	    2.0000 	   18.0307 
    2.2812 	   37.5265 	   23.0000 	    2.0000 	   18.0707 
    2.4338 	   37.5470 	   23.0000 	    2.0000 	   18.1117 
    2.4186 	   37.5665 	   23.0000 	    2.0000 	   18.1507 
    2.3270 	   37.5855 	   23.0000 	    2.0000 	   18.1887 
    2.5406 	   37.6040 	   23.0000 	    2.0000 	   18.2257 
    2.4033 	   37.6210 	   23.0000 	    2.0000 	   18.2597 
    2.2202 	   37.6415 	   23.0000 	    2.0000 	   18.3007 
    2.2354 	   37.6610 	   23.0000 	    2.0000 	   18.3397 
    2.3880 	   37.6840 	   23.0000 	    2.0000 	   18.3857 
    2.3575 	   37.7060 	   23.0000 	    2.0000 	   18.4297 
    2.3270 	   37.7265 	   23.0000 	    2.0000 	   18.4707 
    2.3117 	   37.7470 	   23.0000 	    2.0000 	   18.5117 
    2.4491 	   37.7670 	   23.0000 	    2.0000 	   18.5517 
    2.4796 	   37.7870 	   23.0000 	    2.0000 	   18.5917 
    2.0676 	   37.8075 	   23.0000 	    2.0000 	   18.6327 
    2.4643 	   37.8270 	   23.0000 	    2.0000 	   18.6717 
    2.2202 	   37.8470 	   23.0000 	    2.0000 	   18.7117 
    2.3728 	   37.8675 	   23.0000 	    2.0000 	   18.7527 
    2.4491 	   37.8880 	   23.0000 	    2.0000 	   18.7927 
    2.4948 	   37.9080 	   23.0000 	    2.0000 	   18.8327 
    2.3270 	   37.9280 	   23.0000 	    2.0000 	   18.8727 
    2.4491 	   37.9480 	   23.0000 	    2.0000 	   18.9127 
    2.3270 	   37.9680 	   23.0000 	    2.0000 	   18.9527 
    2.4491 	   37.9895 	   23.0000 	    2.0000 	   18.9957 
    2.4948 	   38.0090 	   23.0000 	    2.0000 	   19.0347 
    2.3270 	   38.0290 	   23.0000 	    2.0000 	   19.0747 
    2.3728 	   38.0505 	   23.0000 	    2.0000 	   19.1177 
    2.3880 	   38.0700 	   23.0000 	    2.0000 	   19.1567 
    2.3117 	   38.0900 	   23.0000 	    2.0000 	   19.1967 
    2.3423 	   38.1095 	   23.0000 	    2.0000 	   19.2357 
    2.4948 	   38.1300 	   23.0000 	    2.0000 	   19.2767 
    2.3880 	   38.1495 	   23.0000 	    2.0000 	   19.3157 
    2.3728 	   38.1685 	   23.0000 	    2.0000 	   19.3537 
    2.4338 	   38.1860 	   23.0000 	    2.0000 	   19.3887 
    2.1134 	   38.2040 	   23.0000 	    2.0000 	   19.4247 
    2.4491 	   38.2225 	   23.0000 	    2.0000 	   19.4618 
    2.3270 	   38.2420 	   23.0000 	    2.0000 	   19.5008 
    2.3880 	   38.2620 	   23.0000 	    2.0000 	   19.5408 
    2.4643 	   38.2820 	   23.0000 	    2.0000 	   19.5808 
    2.4796 	   38.3020 	   23.0000 	    2.0000 	   19.6208 
    2.2507 	   38.3220 	   23.0000 	    2.0000 	   19.6608 
    2.5406 	   38.3420 	   23.0000 	    2.0000 	   19.7008 
    2.4491 	   38.3625 	   23.0000 	    2.0000 	   19.7418 
    2.4338 	   38.3820 	   23.0000 	    2.0000 	   19.7808 
    2.4033 	   38.4020 	   23.0000 	    2.0000 	   19.8208 
    2.4796 	   38.4220 	   23.0000 	    2.0000 	   19.8608 
    2.4033 	   38.4420 	   23.0000 	    2.0000 	   19.9008 
    2.6017 	   38.4615 	   23.0000 	    2.0000 	   19.9398 
    2.5711 	   38.4820 	   23.0000 	    2.0000 	   19.9808 
    2.5711 	   38.5030 	   23.0000 	    2.0000 	   20.0228 
    2.3880 	   38.5230 	   23.0000 	    2.0000 	   20.0628 
    2.5254 	   38.5445 	   23.0000 	    2.0000 	   20.1058 
    2.4491 	   38.5645 	   23.0000 	    2.0000 	   20.1458 
    2.5101 	   38.5840 	   23.0000 	    2.0000 	   20.1848 
    2.4796 	   38.6045 	   23.0000 	    2.0000 	   20.2258 
    2.3575 	   38.6225 	   23.0000 	    2.0000 	   20.2618 
    2.4643 	   38.6405 	   23.0000 	    2.0000 	   20.2978 
    2.4948 	   38.6585 	   23.0000 	    2.0000 	   20.3338 
    2.5711 	   38.6770 	   23.0000 	    2.0000 	   20.3708 
    2.4491 	   38.6950 	   23.0000 	    2.0000 	   20.4068 
    2.1439 	   38.7130 	   23.0000 	    2.0000 	   20.4428 
    2.4948 	   38.7310 	   23.0000 	    2.0000 	   20.4788 
    2.4796 	   38.7490 	   23.0000 	    2.0000 	   20.5148 
    2.5254 	   38.7670 	   23.0000 	    2.0000 	   20.5508 
    2.2202 	   38.7850 	   23.0000 	    2.0000 	   20.5868 
    2.4796 	   38.8030 	   23.0000 	    2.0000 	   20.6228 
    2.4338 	   38.8235 	   23.0000 	    2.0000 	   20.6638 
    2.4491 	   38.8440 	   23.0000 	    2.0000 	   20.7048 
    2.4338 	   38.8635 	   23.0000 	    2.0000 	   20.7438 
    2.3575 	   38.8810 	   23.0000 	    2.0000 	   20.7788 
    2.6627 	   38.8995 	   23.0000 	    2.0000 	   20.8158 
    2.4491 	   38.9175 	   23.0000 	    2.0000 	   20.8518 
    2.5101 	   38.9355 	   23.0000 	    2.0000 	   20.8878 
    2.3575 	   38.9540 	   23.0000 	    2.0000 	   20.9248 
    2.3728 	   38.9720 	   23.0000 	    2.0000 	   20.9608 
    2.6169 	   38.9900 	   23.0000 	    2.0000 	   20.9968 
    2.4491 	   39.0085 	   23.0000 	    2.0000 	   21.0338 
    2.4491 	   39.0265 	   23.0000 	    2.0000 	   21.0698 
    2.4948 	   39.0460 	   23.0000 	    2.0000 	   21.1088 
    2.5559 	   39.0635 	   23.0000 	    2.0000 	   21.1438 
    2.6322 	   39.0820 	   23.0000 	    2.0000 	   21.1808 
    2.6627 	   39.1010 	   23.0000 	    2.0000 	   21.2188 
    2.4491 	   39.1195 	   23.0000 	    2.0000 	   21.2559 
    2.7085 	   39.1375 	   23.0000 	    2.0000 	   21.2919 
    2.4643 	   39.1555 	   23.0000 	    2.0000 	   21.3279 
    2.3270 	   39.1745 	   23.0000 	    2.0000 	   21.3659 
    2.4948 	   39.1950 	   23.0000 	    2.0000 	   21.4069 
    2.4796 	   39.2150 	   23.0000 	    2.0000 	   21.4469 
    2.4796 	   39.2340 	   23.0000 	    2.0000 	   21.4849 
    2.4796 	   39.2520 	   23.0000 	    2.0000 	   21.5209 
    2.4796 	   39.2710 	   23.0000 	    2.0000 	   21.5589 
    2.4948 	   39.2900 	   23.0000 	    2.0000 	   21.5969 
    2.4948 	   39.3080 	   23.0000 	    2.0000 	   21.6329 
    2.5254 	   39.3270 	   23.0000 	    2.0000 	   21.6709 
    2.2660 	   39.3460 	   23.0000 	    2.0000 	   21.7089 
    2.6932 	   39.3665 	   23.0000 	    2.0000 	   21.7499 
    2.4948 	   39.3860 	   23.0000 	    2.0000 	   21.7889 
    2.5254 	   39.4065 	   23.0000 	    2.0000 	   21.8299 
    2.5101 	   39.4265 	   23.0000 	    2.0000 	   21.8699 
    2.5101 	   39.4465 	   23.0000 	    2.0000 	   21.9099 
    2.5711 	   39.4670 	   23.0000 	    2.0000 	   21.9509 
    2.4491 	   39.4875 	   23.0000 	    2.0000 	   21.9919 
    2.5254 	   39.5060 	   23.0000 	    2.0000 	   22.0289 
    2.4643 	   39.5240 	   23.0000 	    2.0000 	   22.0649 
    2.4491 	   39.5425 	   23.0000 	    2.0000 	   22.1019 
    2.4186 	   39.5610 	   23.0000 	    2.0000 	   22.1389 
    2.3575 	   39.5785 	   23.0000 	    2.0000 	   22.1739 
    2.4033 	   39.5980 	   23.0000 	    2.0000 	   22.2129 
    2.6017 	   39.6175 	   23.0000 	    2.0000 	   22.2519 
    2.5864 	   39.6370 	   23.0000 	    2.0000 	   22.2909 
    2.4033 	   39.6565 	   23.0000 	    2.0000 	   22.3299 
    2.0981 	   39.6765 	   23.0000 	    2.0000 	   22.3699 
    2.4186 	   39.6965 	   23.0000 	    2.0000 	   22.4099 
    2.7237 	   39.7150 	   23.0000 	    2.0000 	   22.4469 
    2.6017 	   39.7330 	   23.0000 	    2.0000 	   22.4829 
    2.6169 	   39.7525 	   23.0000 	    2.0000 	   22.5219 
    2.5254 	   39.7715 	   23.0000 	    2.0000 	   22.5599 
    2.5711 	   39.7895 	   23.0000 	    2.0000 	   22.5959 
    2.6474 	   39.8075 	   23.0000 	    2.0000 	   22.6319 
    2.5101 	   39.8270 	   23.0000 	    2.0000 	   22.6709 
    2.5559 	   39.8470 	   23.0000 	    2.0000 	   22.7109 
    2.5559 	   39.8665 	   23.0000 	    2.0000 	   22.7499 
    2.4948 	   39.8875 	   23.0000 	    2.0000 	   22.7919 
    2.5864 	   39.9080 	   23.0000 	    2.0000 	   22.8329 
    2.4948 	   39.9290 	   23.0000 	    2.0000 	   22.8749 
    2.4948 	   39.9495 	   23.0000 	    2.0000 	   22.9159 
    2.5406 	   39.9690 	   23.0000 	    2.0000 	   22.9549 
    2.2812 	   39.9900 	   23.0000 	    2.0000 	   22.9970 
    2.5254 	   40.0100 	   23.0000 	    2.0000 	   23.0370 
    2.6017 	   40.0300 	   23.0000 	    2.0000 	   23.0770 
    2.5406 	   40.0515 	   23.0000 	    2.0000 	   23.1200 
    2.6474 	   40.0710 	   23.0000 	    2.0000 	   23.1590 
    2.4948 	   40.0905 	   23.0000 	    2.0000 	   23.1980 
    2.6627 	   40.1085 	   23.0000 	    2.0000 	   23.2340 
    2.4491 	   40.1270 	   23.0000 	    2.0000 	   23.2710 
    2.5864 	   40.1450 	   23.0000 	    2.0000 	   23.3070 
    2.6627 	   40.1630 	   23.0000 	    2.0000 	   23.3430 
    2.5254 	   40.1810 	   23.0000 	    2.0000 	   23.3790 
    2.5101 	   40.1990 	   23.0000 	    2.0000 	   23.4150 
    2.2965 	   40.2170 	   23.0000 	    2.0000 	   23.4510 
    2.5406 	   40.2370 	   23.0000 	    2.0000 	   23.4910 
    2.5254 	   40.2560 	   23.0000 	    2.0000 	   23.5290 
    2.4338 	   40.2755 	   23.0000 	    2.0000 	   23.5680 
    2.6627 	   40.2940 	   23.0000 	    2.0000 	   23.6050 
    2.5711 	   40.3120 	   23.0000 	    2.0000 	   23.6410 
    2.5406 	   40.3295 	   23.0000 	    2.0000 	   23.6760 
    2.2354 	   40.3480 	   23.0000 	    2.0000 	   23.7130 
    2.6322 	   40.3660 	   23.0000 	    2.0000 	   23.7490 
    2.6017 	   40.3845 	   23.0000 	    2.0000 	   23.7860 
    2.5711 	   40.4035 	   23.0000 	    2.0000 	   23.8240 
    2.6017 	   40.4230 	   23.0000 	    2.0000 	   23.8630 
    2.5406 	   40.4430 	   23.0000 	    2.0000 	   23.9030 
    2.6474 	   40.4625 	   23.0000 	    2.0000 	   23.9420 
    2.6932 	   40.4835 	   23.0000 	    2.0000 	   23.9840 
    2.5711 	   40.5035 	   23.0000 	    2.0000 	   24.0240 
    2.5864 	   40.5225 	   23.0000 	    2.0000 	   24.0620 
    2.8305 	   40.5415 	   23.0000 	    2.0000 	   24.1000 
    2.5559 	   40.5605 	   23.0000 	    2.0000 	   24.1380 
    2.6017 	   40.5800 	   23.0000 	    2.0000 	   24.1770 
    2.4491 	   40.5985 	   23.0000 	    2.0000 	   24.2140 
    2.5559 	   40.6160 	   23.0000 	    2.0000 	   24.2490 
    2.5254 	   40.6350 	   23.0000 	    2.0000 	   24.2870 
    2.2965 	   40.6545 	   23.0000 	    2.0000 	   24.3260 
    2.6322 	   40.6745 	   23.0000 	    2.0000 	   24.3660 
    2.4948 	   40.6965 	   23.0000 	    2.0000 	   24.4100 
    2.6169 	   40.7160 	   23.0000 	    2.0000 	   24.4490 
    2.7237 	   40.7365 	   23.0000 	    2.0000 	   24.4900 
    2.3880 	   40.7550 	   23.0000 	    2.0000 	   24.5270 
    2.6017 	   40.7730 	   23.0000 	    2.0000 	   24.5630 
    2.2049 	   40.7915 	   23.0000 	    2.0000 	   24.6000 
    2.5254 	   40.8105 	   23.0000 	    2.0000 	   24.6380 
    2.5254 	   40.8290 	   23.0000 	    2.0000 	   24.6750 
    2.6932 	   40.8535 	   23.0000 	    2.0000 	   24.7241 
    2.5711 	   40.8710 	   23.0000 	    2.0000 	   24.7591 
    2.7085 	   40.8890 	   23.0000 	    2.0000 	   24.7951 
    2.6169 	   40.9080 	   23.0000 	    2.0000 	   24.8331 
    2.6474 	   40.9260 	   23.0000 	    2.0000 	   24.8691 
    2.5711 	   40.9445 	   23.0000 	    2.0000 	   24.9061 
    2.5254 	   40.9630 	   23.0000 	    2.0000 	   24.9431 
    2.7390 	   40.9815 	   23.0000 	    2.0000 	   24.9801 
    2.5711 	   41.0015 	   23.0000 	    2.0000 	   25.0201 
    2.5101 	   41.0220 	   23.0000 	    2.0000 	   25.0611 
    2.5406 	   41.0440 	   23.0000 	    2.0000 	   25.1051 
    2.6780 	   41.0645 	   23.0000 	    2.0000 	   25.1461 
    2.3575 	   41.0850 	   23.0000 	    2.0000 	   25.1871 
    2.8305 	   41.1055 	   23.0000 	    2.0000 	   25.2281 
    2.6169 	   41.1275 	   23.0000 	    2.0000 	   25.2721 
    2.7390 	   41.1475 	   23.0000 	    2.0000 	   25.3121 
    2.4491 	   41.1685 	   23.0000 	    2.0000 	   25.3541 
    2.5711 	   41.1890 	   23.0000 	    2.0000 	   25.3951 
    2.6322 	   41.2085 	   23.0000 	    2.0000 	   25.4341 
    2.6932 	   41.2295 	   23.0000 	    2.0000 	   25.4761 
    2.6627 	   41.2500 	   23.0000 	    2.0000 	   25.5171 
    2.6017 	   41.2705 	   23.0000 	    2.0000 	   25.5581 
    2.6627 	   41.2910 	   23.0000 	    2.0000 	   25.5991 
    2.5101 	   41.3205 	   23.0000 	    2.0000 	   25.6581 
    2.6322 	   41.3405 	   23.0000 	    2.0000 	   25.6981 
    2.5864 	   41.3610 	   23.0000 	    2.0000 	   25.7391 
    2.7085 	   41.3815 	   23.0000 	    2.0000 	   25.7801 
    2.6322 	   41.4010 	   23.0000 	    2.0000 	   25.8191 
    2.6169 	   41.4215 	   23.0000 	    2.0000 	   25.8601 
    2.7085 	   41.4420 	   23.0000 	    2.0000 	   25.9011 
    2.7543 	   41.4615 	   23.0000 	    2.0000 	   25.9401 
    2.6169 	   41.4820 	   23.0000 	    2.0000 	   25.9811 
    2.6780 	   41.5035 	   23.0000 	    2.0000 	   26.0241 
    2.6474 	   41.5240 	   23.0000 	    2.0000 	   26.0651 
    2.6474 	   41.5440 	   23.0000 	    2.0000 	   26.1051 
    2.6474 	   41.5645 	   23.0000 	    2.0000 	   26.1461 
    2.6780 	   41.5850 	   23.0000 	    2.0000 	   26.1871 
    2.5559 	   41.6050 	   23.0000 	    2.0000 	   26.2271 
    2.7848 	   41.6255 	   23.0000 	    2.0000 	   26.2681 
    2.7237 	   41.6460 	   23.0000 	    2.0000 	   26.3091 
    2.7848 	   41.6675 	   23.0000 	    2.0000 	   26.3521 
    2.6322 	   41.6885 	   23.0000 	    2.0000 	   26.3941 
    2.5864 	   41.7095 	   23.0000 	    2.0000 	   26.4361 
    2.6627 	   41.7305 	   23.0000 	    2.0000 	   26.4782 
    2.5864 	   41.7495 	   23.0000 	    2.0000 	   26.5162 
    2.6627 	   41.7700 	   23.0000 	    2.0000 	   26.5572 
    2.6780 	   41.7900 	   23.0000 	    2.0000 	   26.5962 
    2.7848 	   41.8115 	   23.0000 	    2.0000 	   26.6402 
    2.4948 	   41.8320 	   23.0000 	    2.0000 	   26.6812 
    2.6322 	   41.8515 	   23.0000 	    2.0000 	   26.7202 
    2.7237 	   41.8720 	   23.0000 	    2.0000 	   26.7612 
    2.8000 	   41.8925 	   23.0000 	    2.0000 	   26.8022 
    2.7695 	   41.9110 	   23.0000 	    2.0000 	   26.8392 
    2.7085 	   41.9325 	   23.0000 	    2.0000 	   26.8822 
    2.7390 	   41.9530 	   23.0000 	    2.0000 	   26.9232 
    2.7390 	   41.9730 	   23.0000 	    2.0000 	   26.9632 
    2.6322 	   41.9940 	   23.0000 	    2.0000 	   27.0052 
    2.5559 	   42.0140 	   23.0000 	    2.0000 	   27.0452 
    2.8763 	   42.0345 	   23.0000 	    2.0000 	   27.0862 
    2.7390 	   42.0565 	   23.0000 	    2.0000 	   27.1302 
    2.7543 	   42.0785 	   23.0000 	    2.0000 	   27.1742 
    2.8305 	   42.0985 	   23.0000 	    2.0000 	   27.2142 
    2.7085 	   42.1180 	   23.0000 	    2.0000 	   27.2532 
    2.7543 	   42.1385 	   23.0000 	    2.0000 	   27.2942 
    2.6169 	   42.1590 	   23.0000 	    2.0000 	   27.3352 
    2.8000 	   42.1815 	   23.0000 	    2.0000 	   27.3802 
    2.7085 	   42.2015 	   23.0000 	    2.0000 	   27.4202 
    2.7085 	   42.2230 	   23.0000 	    2.0000 	   27.4632 
    2.7695 	   42.2440 	   23.0000 	    2.0000 	   27.5052 
    2.6322 	   42.2650 	   23.0000 	    2.0000 	   27.5472 
    2.7695 	   42.2855 	   23.0000 	    2.0000 	   27.5882 
    2.7390 	   42.3060 	   23.0000 	    2.0000 	   27.6292 
    2.8916 	   42.3270 	   23.0000 	    2.0000 	   27.6712 
    2.6780 	   42.3470 	   23.0000 	    2.0000 	   27.7112 
    2.6780 	   42.3665 	   23.0000 	    2.0000 	   27.7502 
    2.6780 	   42.3865 	   23.0000 	    2.0000 	   27.7902 
    2.6474 	   42.4050 	   23.0000 	    2.0000 	   27.8272 
    2.8611 	   42.4235 	   23.0000 	    2.0000 	   27.8642 
    2.6780 	   42.4415 	   23.0000 	    2.0000 	   27.9002 
    2.6932 	   42.4610 	   23.0000 	    2.0000 	   27.9392 
    2.7543 	   42.4815 	   23.0000 	    2.0000 	   27.9802 
    2.6932 	   42.5010 	   23.0000 	    2.0000 	   28.0192 
    2.8305 	   42.5220 	   23.0000 	    2.0000 	   28.0612 
    2.8000 	   42.5420 	   23.0000 	    2.0000 	   28.1012 
    2.6169 	   42.5640 	   23.0000 	    2.0000 	   28.1452 
    2.6474 	   42.5855 	   23.0000 	    2.0000 	   28.1882 
    2.7390 	   42.6055 	   23.0000 	    2.0000 	   28.2283 
    2.6627 	   42.6265 	   23.0000 	    2.0000 	   28.2703 
    2.6932 	   42.6475 	   23.0000 	    2.0000 	   28.3123 
    2.4948 	   42.6695 	   23.0000 	    2.0000 	   28.3563 
    2.7390 	   42.6890 	   23.0000 	    2.0000 	   28.3953 
    2.8000 	   42.7090 	   23.0000 	    2.0000 	   28.4353 
    2.7695 	   42.7305 	   23.0000 	    2.0000 	   28.4783 
    2.8000 	   42.7495 	   23.0000 	    2.0000 	   28.5163 
    2.7085 	   42.7690 	   23.0000 	    2.0000 	   28.5553 
    2.6322 	   42.7895 	   23.0000 	    2.0000 	   28.5963 
    2.7848 	   42.8100 	   23.0000 	    2.0000 	   28.6373 
    2.8763 	   42.8305 	   23.0000 	    2.0000 	   28.6783 
    2.7695 	   42.8510 	   23.0000 	    2.0000 	   28.7193 
    2.7543 	   42.8720 	   23.0000 	    2.0000 	   28.7613 
    2.7390 	   42.8935 	   23.0000 	    2.0000 	   28.8043 
    2.6932 	   42.9135 	   23.0000 	    2.0000 	   28.8443 
    2.8000 	   42.9340 	   23.0000 	    2.0000 	   28.8853 
    2.8000 	   42.9550 	   23.0000 	    2.0000 	   28.9273 
    2.7695 	   42.9760 	   23.0000 	    2.0000 	   28.9693 
    2.8611 	   42.9975 	   23.0000 	    2.0000 	   29.0123 
    2.8458 	   43.0180 	   23.0000 	    2.0000 	   29.0533 
    2.7390 	   43.0395 	   23.0000 	    2.0000 	   29.0963 
    2.7085 	   43.0620 	   23.0000 	    2.0000 	   29.1413 
    2.6627 	   43.0835 	   23.0000 	    2.0000 	   29.1843 
    2.7543 	   43.1045 	   23.0000 	    2.0000 	   29.2263 
    2.6932 	   43.1245 	   23.0000 	    2.0000 	   29.2663 
    2.9068 	   43.1445 	   23.0000 	    2.0000 	   29.3063 
    2.8153 	   43.1650 	   23.0000 	    2.0000 	   29.3473 
    2.8611 	   43.1885 	   23.0000 	    2.0000 	   29.3943 
    2.6322 	   43.2100 	   23.0000 	    2.0000 	   29.4373 
    2.8305 	   43.2310 	   23.0000 	    2.0000 	   29.4793 
    2.8153 	   43.2510 	   23.0000 	    2.0000 	   29.5193 
    2.7237 	   43.2720 	   23.0000 	    2.0000 	   29.5613 
    2.8458 	   43.2930 	   23.0000 	    2.0000 	   29.6033 
    2.6627 	   43.3205 	   23.0000 	    2.0000 	   29.6583 
    2.7237 	   43.3410 	   23.0000 	    2.0000 	   29.6993 
    2.7085 	   43.3620 	   23.0000 	    2.0000 	   29.7413 
    2.8611 	   43.3830 	   23.0000 	    2.0000 	   29.7833 
    2.6017 	   43.4040 	   23.0000 	    2.0000 	   29.8253 
    2.7390 	   43.4240 	   23.0000 	    2.0000 	   29.8653 
    2.6627 	   43.4455 	   23.0000 	    2.0000 	   29.9083 
    2.7543 	   43.4660 	   23.0000 	    2.0000 	   29.9493 
    2.7695 	   43.4870 	   23.0000 	    2.0000 	   29.9914 
    2.7543 	   43.5065 	   23.0000 	    2.0000 	   30.0304 
    2.7543 	   43.5270 	   23.0000 	    2.0000 	   30.0714 
    2.9374 	   43.5480 	   23.0000 	    2.0000 	   30.1134 
    2.8153 	   43.5690 	   23.0000 	    2.0000 	   30.1554 
    2.7848 	   43.5890 	   23.0000 	    2.0000 	   30.1954 
    2.8611 	   43.6095 	   23.0000 	    2.0000 	   30.2364 
    2.7695 	   43.6310 	   23.0000 	    2.0000 	   30.2794 
    2.7695 	   43.6510 	   23.0000 	    2.0000 	   30.3194 
    2.8305 	   43.6710 	   23.0000 	    2.0000 	   30.3594 
    2.7390 	   43.6925 	   23.0000 	    2.0000 	   30.4024 
    2.7695 	   43.7130 	   23.0000 	    2.0000 	   30.4434 
    2.7390 	   43.7345 	   23.0000 	    2.0000 	   30.4864 
    2.7848 	   43.7555 	   23.0000 	    2.0000 	   30.5284 
    2.5864 	   43.7765 	   23.0000 	    2.0000 	   30.5704 
    2.7695 	   43.7970 	   23.0000 	    2.0000 	   30.6114 
    2.8305 	   43.8180 	   23.0000 	    2.0000 	   30.6534 
    2.9526 	   43.8395 	   23.0000 	    2.0000 	   30.6964 
    2.7695 	   43.8600 	   23.0000 	    2.0000 	   30.7374 
    2.7543 	   43.8810 	   23.0000 	    2.0000 	   30.7794 
    2.8000 	   43.9015 	   23.0000 	    2.0000 	   30.8204 
    2.7390 	   43.9235 	   23.0000 	    2.0000 	   30.8644 
    2.6017 	   43.9435 	   23.0000 	    2.0000 	   30.9044 
    2.8153 	   43.9650 	   23.0000 	    2.0000 	   30.9474 
    2.7695 	   43.9860 	   23.0000 	    2.0000 	   30.9894 
    2.7543 	   44.0075 	   23.0000 	    2.0000 	   31.0324 
    2.7848 	   44.0275 	   23.0000 	    2.0000 	   31.0724 
    2.8153 	   44.0490 	   23.0000 	    2.0000 	   31.1154 
    2.7848 	   44.0695 	   23.0000 	    2.0000 	   31.1564 
    2.8763 	   44.0905 	   23.0000 	    2.0000 	   31.1984 
    2.7848 	   44.1115 	   23.0000 	    2.0000 	   31.2404 
    2.9374 	   44.1320 	   23.0000 	    2.0000 	   31.2814 
    2.7695 	   44.1530 	   23.0000 	    2.0000 	   31.3234 
    2.7695 	   44.1740 	   23.0000 	    2.0000 	   31.3654 
    2.8000 	   44.1960 	   23.0000 	    2.0000 	   31.4094 
    2.8305 	   44.2165 	   23.0000 	    2.0000 	   31.4504 
    2.9831 	   44.2390 	   23.0000 	    2.0000 	   31.4954 
    2.8458 	   44.2595 	   23.0000 	    2.0000 	   31.5364 
    2.9526 	   44.2805 	   23.0000 	    2.0000 	   31.5784 
    2.7390 	   44.3015 	   23.0000 	    2.0000 	   31.6204 
    2.8000 	   44.3225 	   23.0000 	    2.0000 	   31.6624 
    2.8153 	   44.3430 	   23.0000 	    2.0000 	   31.7034 
    2.8763 	   44.3645 	   23.0000 	    2.0000 	   31.7465 
    2.9374 	   44.3850 	   23.0000 	    2.0000 	   31.7875 
    2.8763 	   44.4055 	   23.0000 	    2.0000 	   31.8285 
    3.0137 	   44.4265 	   23.0000 	    2.0000 	   31.8695 
    2.7695 	   44.4465 	   23.0000 	    2.0000 	   31.9105 
    2.6932 	   44.4685 	   23.0000 	    2.0000 	   31.9545 
    2.8611 	   44.4890 	   23.0000 	    2.0000 	   31.9955 
    2.7543 	   44.5105 	   23.0000 	    2.0000 	   32.0385 
    3.0289 	   44.5310 	   23.0000 	    2.0000 	   32.0795 
    2.8458 	   44.5500 	   23.0000 	    2.0000 	   32.1175 
    2.8153 	   44.5690 	   23.0000 	    2.0000 	   32.1555 
    2.8305 	   44.5880 	   23.0000 	    2.0000 	   32.1935 
    2.9221 	   44.6090 	   23.0000 	    2.0000 	   32.2355 
    2.8305 	   44.6300 	   23.0000 	    2.0000 	   32.2775 
    2.9526 	   44.6510 	   23.0000 	    2.0000 	   32.3195 
    2.8305 	   44.6720 	   23.0000 	    2.0000 	   32.3615 
    2.9221 	   44.6925 	   23.0000 	    2.0000 	   32.4025 
    2.7390 	   44.7130 	   23.0000 	    2.0000 	   32.4435 
    2.9374 	   44.7330 	   23.0000 	    2.0000 	   32.4835 
    2.8763 	   44.7530 	   23.0000 	    2.0000 	   32.5235 
    2.8153 	   44.7735 	   23.0000 	    2.0000 	   32.5645 
    2.8916 	   44.7935 	   23.0000 	    2.0000 	   32.6045 
    2.8763 	   44.8150 	   23.0000 	    2.0000 	   32.6475 
    2.9679 	   44.8360 	   23.0000 	    2.0000 	   32.6895 
    2.8763 	   44.8560 	   23.0000 	    2.0000 	   32.7295 
    2.8611 	   44.8770 	   23.0000 	    2.0000 	   32.7715 
    2.8611 	   44.8985 	   23.0000 	    2.0000 	   32.8145 
    2.9068 	   44.9195 	   23.0000 	    2.0000 	   32.8565 
    2.7695 	   44.9405 	   23.0000 	    2.0000 	   32.8985 
    2.7085 	   44.9615 	   23.0000 	    2.0000 	   32.9405 
    2.9068 	   44.9830 	   23.0000 	    2.0000 	   32.9835 
    2.9679 	   45.0045 	   23.0000 	    2.0000 	   33.0265 
    2.9068 	   45.0250 	   23.0000 	    2.0000 	   33.0675 
    2.9984 	   45.0490 	   23.0000 	    2.0000 	   33.1155 
    2.9526 	   45.0700 	   23.0000 	    2.0000 	   33.1575 
    2.6169 	   45.0920 	   23.0000 	    2.0000 	   33.2015 
    2.8153 	   45.1130 	   23.0000 	    2.0000 	   33.2435 
    2.9374 	   45.1350 	   23.0000 	    2.0000 	   33.2875 
    2.8763 	   45.1560 	   23.0000 	    2.0000 	   33.3295 
    2.9526 	   45.1785 	   23.0000 	    2.0000 	   33.3745 
    2.9068 	   45.1990 	   23.0000 	    2.0000 	   33.4155 
    2.6474 	   45.2200 	   23.0000 	    2.0000 	   33.4576 
    3.0900 	   45.2415 	   23.0000 	    2.0000 	   33.5006 
    2.5254 	   45.2615 	   23.0000 	    2.0000 	   33.5406 
    2.9526 	   45.2825 	   23.0000 	    2.0000 	   33.5826 
    2.9984 	   45.3035 	   23.0000 	    2.0000 	   33.6246 
    2.7390 	   45.3240 	   23.0000 	    2.0000 	   33.6656 
    2.8763 	   45.3450 	   23.0000 	    2.0000 	   33.7076 
    2.8305 	   45.3660 	   23.0000 	    2.0000 	   33.7496 
    2.9374 	   45.3875 	   23.0000 	    2.0000 	   33.7926 
    2.9679 	   45.4075 	   23.0000 	    2.0000 	   33.8326 
    2.8153 	   45.4300 	   23.0000 	    2.0000 	   33.8776 
    2.4948 	   45.4505 	   23.0000 	    2.0000 	   33.9186 
    2.9831 	   45.4720 	   23.0000 	    2.0000 	   33.9616 
    3.0442 	   45.4915 	   23.0000 	    2.0000 	   34.0006 
    2.8916 	   45.5125 	   23.0000 	    2.0000 	   34.0426 
    2.9068 	   45.5345 	   23.0000 	    2.0000 	   34.0866 
    2.8763 	   45.5555 	   23.0000 	    2.0000 	   34.1286 
    2.9984 	   45.5760 	   23.0000 	    2.0000 	   34.1696 
    2.9831 	   45.5960 	   23.0000 	    2.0000 	   34.2096 
    2.7848 	   45.6170 	   23.0000 	    2.0000 	   34.2516 
    3.0289 	   45.6385 	   23.0000 	    2.0000 	   34.2946 
    2.9679 	   45.6595 	   23.0000 	    2.0000 	   34.3366 
    2.9068 	   45.6800 	   23.0000 	    2.0000 	   34.3776 
    2.9068 	   45.7005 	   23.0000 	    2.0000 	   34.4186 
    3.0442 	   45.7190 	   23.0000 	    2.0000 	   34.4556 
    2.9984 	   45.7385 	   23.0000 	    2.0000 	   34.4946 
    3.0900 	   45.7570 	   23.0000 	    2.0000 	   34.5316 
    2.6017 	   45.7760 	   23.0000 	    2.0000 	   34.5696 
    3.0442 	   45.7960 	   23.0000 	    2.0000 	   34.6096 
    2.9984 	   45.8170 	   23.0000 	    2.0000 	   34.6516 
    2.9068 	   45.8365 	   23.0000 	    2.0000 	   34.6906 
    2.9526 	   45.8555 	   23.0000 	    2.0000 	   34.7286 
    2.9679 	   45.8755 	   23.0000 	    2.0000 	   34.7686 
    3.1052 	   45.8950 	   23.0000 	    2.0000 	   34.8076 
    3.0900 	   45.9140 	   23.0000 	    2.0000 	   34.8456 
    3.0900 	   45.9340 	   23.0000 	    2.0000 	   34.8856 
    2.7390 	   45.9530 	   23.0000 	    2.0000 	   34.9236 
    2.9679 	   45.9740 	   23.0000 	    2.0000 	   34.9656 
    3.0442 	   45.9945 	   23.0000 	    2.0000 	   35.0066 
    2.9679 	   46.0150 	   23.0000 	    2.0000 	   35.0476 
    2.6627 	   46.0365 	   23.0000 	    2.0000 	   35.0906 
    2.9068 	   46.0590 	   23.0000 	    2.0000 	   35.1356 
    2.9984 	   46.0800 	   23.0000 	    2.0000 	   35.1777 
    2.9984 	   46.1000 	   23.0000 	    2.0000 	   35.2177 
    3.0442 	   46.1210 	   23.0000 	    2.0000 	   35.2597 
    3.0594 	   46.1415 	   23.0000 	    2.0000 	   35.3007 
    2.9831 	   46.1620 	   23.0000 	    2.0000 	   35.3417 
    2.9526 	   46.1820 	   23.0000 	    2.0000 	   35.3817 
    2.9068 	   46.2030 	   23.0000 	    2.0000 	   35.4237 
    3.1815 	   46.2240 	   23.0000 	    2.0000 	   35.4657 
    3.0747 	   46.2440 	   23.0000 	    2.0000 	   35.5057 
    2.9984 	   46.2645 	   23.0000 	    2.0000 	   35.5467 
    2.9221 	   46.2855 	   23.0000 	    2.0000 	   35.5887 
    2.9679 	   46.3060 	   23.0000 	    2.0000 	   35.6297 
    2.9831 	   46.3250 	   23.0000 	    2.0000 	   35.6677 
    2.8305 	   46.3435 	   23.0000 	    2.0000 	   35.7047 
    3.1052 	   46.3620 	   23.0000 	    2.0000 	   35.7417 
    2.7848 	   46.3810 	   23.0000 	    2.0000 	   35.7797 
    2.9831 	   46.4000 	   23.0000 	    2.0000 	   35.8177 
    2.9984 	   46.4185 	   23.0000 	    2.0000 	   35.8547 
    3.0747 	   46.4380 	   23.0000 	    2.0000 	   35.8937 
    3.0137 	   46.4565 	   23.0000 	    2.0000 	   35.9307 
    2.9526 	   46.4750 	   23.0000 	    2.0000 	   35.9677 
    2.8916 	   46.4935 	   23.0000 	    2.0000 	   36.0047 
    2.9984 	   46.5120 	   23.0000 	    2.0000 	   36.0417 
    2.9374 	   46.5310 	   23.0000 	    2.0000 	   36.0797 
    3.0442 	   46.5495 	   23.0000 	    2.0000 	   36.1167 
    3.0594 	   46.5685 	   23.0000 	    2.0000 	   36.1547 
    2.8916 	   46.5870 	   23.0000 	    2.0000 	   36.1917 
    2.9984 	   46.6060 	   23.0000 	    2.0000 	   36.2297 
    2.9221 	   46.6260 	   23.0000 	    2.0000 	   36.2687 
    2.9221 	   46.6460 	   23.0000 	    2.0000 	   36.3087 
    3.1205 	   46.6650 	   23.0000 	    2.0000 	   36.3467 
    3.0594 	   46.6835 	   23.0000 	    2.0000 	   36.3837 
    3.1510 	   46.7020 	   23.0000 	    2.0000 	   36.4207 
    3.0137 	   46.7210 	   23.0000 	    2.0000 	   36.4587 
    2.9984 	   46.7395 	   23.0000 	    2.0000 	   36.4957 
    3.0289 	   46.7580 	   23.0000 	    2.0000 	   36.5327 
    3.0442 	   46.7770 	   23.0000 	    2.0000 	   36.5707 
    2.9068 	   46.7955 	   23.0000 	    2.0000 	   36.6077 
    2.8305 	   46.8145 	   23.0000 	    2.0000 	   36.6457 
    2.9984 	   46.8345 	   23.0000 	    2.0000 	   36.6857 
    2.9984 	   46.8555 	   23.0000 	    2.0000 	   36.7277 
    3.0594 	   46.8760 	   23.0000 	    2.0000 	   36.7687 
    3.0289 	   46.8965 	   23.0000 	    2.0000 	   36.8097 
    3.1205 	   46.9180 	   23.0000 	    2.0000 	   36.8527 
    3.1662 	   46.9375 	   23.0000 	    2.0000 	   36.8917 
    3.1510 	   46.9565 	   23.0000 	    2.0000 	   36.9297 
    3.0442 	   46.9750 	   23.0000 	    2.0000 	   36.9668 
    2.9984 	   46.9940 	   23.0000 	    2.0000 	   37.0048 
    2.8763 	   47.0140 	   23.0000 	    2.0000 	   37.0448 
    3.1968 	   47.0325 	   23.0000 	    2.0000 	   37.0818 
    2.9831 	   47.0540 	   23.0000 	    2.0000 	   37.1248 
    2.9984 	   47.0730 	   23.0000 	    2.0000 	   37.1628 
    3.1205 	   47.0920 	   23.0000 	    2.0000 	   37.2008 
    2.9679 	   47.1120 	   23.0000 	    2.0000 	   37.2408 
    3.0289 	   47.1315 	   23.0000 	    2.0000 	   37.2798 
    3.0594 	   47.1500 	   23.0000 	    2.0000 	   37.3168 
    2.9526 	   47.1685 	   23.0000 	    2.0000 	   37.3538 
    3.0900 	   47.1870 	   23.0000 	    2.0000 	   37.3908 
    3.1662 	   47.2060 	   23.0000 	    2.0000 	   37.4288 
    2.9831 	   47.2255 	   23.0000 	    2.0000 	   37.4678 
    3.1510 	   47.2445 	   23.0000 	    2.0000 	   37.5058 
    2.9526 	   47.2635 	   23.0000 	    2.0000 	   37.5438 
    3.0442 	   47.2825 	   23.0000 	    2.0000 	   37.5818 
    3.1205 	   47.3010 	   23.0000 	    2.0000 	   37.6188 
    3.1357 	   47.3200 	   23.0000 	    2.0000 	   37.6568 
    2.6932 	   47.3395 	   23.0000 	    2.0000 	   37.6958 
    2.9679 	   47.3595 	   23.0000 	    2.0000 	   37.7358 
    3.0137 	   47.3790 	   23.0000 	    2.0000 	   37.7748 
    3.0442 	   47.3985 	   23.0000 	    2.0000 	   37.8138 
    3.0442 	   47.4200 	   23.0000 	    2.0000 	   37.8568 
    3.1205 	   47.4410 	   23.0000 	    2.0000 	   37.8988 
    3.2731 	   47.4630 	   23.0000 	    2.0000 	   37.9428 
    3.1662 	   47.4845 	   23.0000 	    2.0000 	   37.9858 
    3.1968 	   47.5070 	   23.0000 	    2.0000 	   38.0308 
    3.1357 	   47.5280 	   23.0000 	    2.0000 	   38.0728 
    3.0289 	   47.5490 	   23.0000 	    2.0000 	   38.1148 
    2.7695 	   47.5695 	   23.0000 	    2.0000 	   38.1558 
    3.2120 	   47.5920 	   23.0000 	    2.0000 	   38.2008 
    3.0900 	   47.6135 	   23.0000 	    2.0000 	   38.2438 
    2.9984 	   47.6360 	   23.0000 	    2.0000 	   38.2888 
    3.1357 	   47.6555 	   23.0000 	    2.0000 	   38.3278 
    2.9679 	   47.6745 	   23.0000 	    2.0000 	   38.3658 
    3.2425 	   47.6930 	   23.0000 	    2.0000 	   38.4028 
    3.1357 	   47.7115 	   23.0000 	    2.0000 	   38.4398 
    3.2120 	   47.7305 	   23.0000 	    2.0000 	   38.4778 
    3.0442 	   47.7495 	   23.0000 	    2.0000 	   38.5158 
    3.2273 	   47.7685 	   23.0000 	    2.0000 	   38.5538 
    3.0594 	   47.7875 	   23.0000 	    2.0000 	   38.5918 
    3.0747 	   47.8085 	   23.0000 	    2.0000 	   38.6338 
    3.0137 	   47.8305 	   23.0000 	    2.0000 	   38.6778 
    3.0594 	   47.8515 	   23.0000 	    2.0000 	   38.7199 
    3.1205 	   47.8725 	   23.0000 	    2.0000 	   38.7619 
    3.1815 	   47.8930 	   23.0000 	    2.0000 	   38.8029 
    3.1052 	   47.9130 	   23.0000 	    2.0000 	   38.8429 
    3.1357 	   47.9340 	   23.0000 	    2.0000 	   38.8849 
    3.1357 	   47.9560 	   23.0000 	    2.0000 	   38.9289 
    3.1357 	   47.9770 	   23.0000 	    2.0000 	   38.9709 
    3.1357 	   47.9975 	   23.0000 	    2.0000 	   39.0119 
    3.2120 	   48.0195 	   23.0000 	    2.0000 	   39.0559 
    2.9526 	   48.0405 	   23.0000 	    2.0000 	   39.0979 
    2.9374 	   48.0655 	   23.0000 	    2.0000 	   39.1479 
    3.2425 	   48.0870 	   23.0000 	    2.0000 	   39.1909 
    3.0594 	   48.1075 	   23.0000 	    2.0000 	   39.2319 
    3.0442 	   48.1280 	   23.0000 	    2.0000 	   39.2729 
    3.1662 	   48.1490 	   23.0000 	    2.0000 	   39.3149 
    3.1205 	   48.1705 	   23.0000 	    2.0000 	   39.3579 
    3.0747 	   48.1915 	   23.0000 	    2.0000 	   39.3999 
    3.1052 	   48.2135 	   23.0000 	    2.0000 	   39.4439 
    3.1510 	   48.2345 	   23.0000 	    2.0000 	   39.4859 
    3.1205 	   48.2560 	   23.0000 	    2.0000 	   39.5289 
    3.1205 	   48.2770 	   23.0000 	    2.0000 	   39.5699 
    3.0594 	   48.2975 	   23.0000 	    2.0000 	   39.6119 
    3.3646 	   48.3210 	   23.0000 	    2.0000 	   39.6589 
    3.1662 	   48.3440 	   23.0000 	    2.0000 	   39.7049 
    3.0900 	   48.3655 	   23.0000 	    2.0000 	   39.7479 
    3.2578 	   48.3870 	   23.0000 	    2.0000 	   39.7909 
    3.2578 	   48.4080 	   23.0000 	    2.0000 	   39.8329 
    3.2120 	   48.4310 	   23.0000 	    2.0000 	   39.8789 
    3.2120 	   48.4520 	   23.0000 	    2.0000 	   39.9209 
    3.2425 	   48.4735 	   23.0000 	    2.0000 	   39.9639 
    3.1815 	   48.4940 	   23.0000 	    2.0000 	   40.0039 
    3.2731 	   48.5140 	   23.0000 	    2.0000 	   40.0449 
    3.0594 	   48.5345 	   23.0000 	    2.0000 	   40.0859 
    2.8916 	   48.5530 	   23.0000 	    2.0000 	   40.1229 
    3.1510 	   48.5750 	   23.0000 	    2.0000 	   40.1669 
    3.2731 	   48.5955 	   23.0000 	    2.0000 	   40.2079 
    3.1052 	   48.6155 	   23.0000 	    2.0000 	   40.2479 
    3.2120 	   48.6340 	   23.0000 	    2.0000 	   40.2849 
    3.0900 	   48.6545 	   23.0000 	    2.0000 	   40.3259 
    3.1815 	   48.6760 	   23.0000 	    2.0000 	   40.3689 
    3.2273 	   48.6960 	   23.0000 	    2.0000 	   40.4089 
    3.0900 	   48.7150 	   23.0000 	    2.0000 	   40.4469 
    3.1052 	   48.7340 	   23.0000 	    2.0000 	   40.4850 
    3.1510 	   48.7540 	   23.0000 	    2.0000 	   40.5250 
    3.2425 	   48.7750 	   23.0000 	    2.0000 	   40.5670 
    3.1815 	   48.7960 	   23.0000 	    2.0000 	   40.6090 
    3.1205 	   48.8160 	   23.0000 	    2.0000 	   40.6490 
    3.1968 	   48.8370 	   23.0000 	    2.0000 	   40.6910 
    3.1815 	   48.8590 	   23.0000 	    2.0000 	   40.7350 
    3.2273 	   48.8795 	   23.0000 	    2.0000 	   40.7760 
    3.1052 	   48.9000 	   23.0000 	    2.0000 	   40.8170 
    3.2883 	   48.9210 	   23.0000 	    2.0000 	   40.8590 
    3.0137 	   48.9425 	   23.0000 	    2.0000 	   40.9020 
    3.3646 	   48.9630 	   23.0000 	    2.0000 	   40.9430 
    3.1205 	   48.9850 	   23.0000 	    2.0000 	   40.9870 
    3.2273 	   49.0065 	   23.0000 	    2.0000 	   41.0300 
    3.1662 	   49.0280 	   23.0000 	    2.0000 	   41.0730 
    3.3494 	   49.0510 	   23.0000 	    2.0000 	   41.1190 
    3.2578 	   49.0715 	   23.0000 	    2.0000 	   41.1600 
    3.2578 	   49.0915 	   23.0000 	    2.0000 	   41.2000 
    3.1815 	   49.1105 	   23.0000 	    2.0000 	   41.2380 
    3.2273 	   49.1295 	   23.0000 	    2.0000 	   41.2760 
    3.0289 	   49.1485 	   23.0000 	    2.0000 	   41.3140 
    3.2273 	   49.1675 	   23.0000 	    2.0000 	   41.3520 
    3.1510 	   49.1865 	   23.0000 	    2.0000 	   41.3900 
    3.3188 	   49.2055 	   23.0000 	    2.0000 	   41.4280 
    3.3188 	   49.2245 	   23.0000 	    2.0000 	   41.4660 
    3.3646 	   49.2445 	   23.0000 	    2.0000 	   41.5060 
    3.1968 	   49.2660 	   23.0000 	    2.0000 	   41.5490 
    3.3341 	   49.2875 	   23.0000 	    2.0000 	   41.5920 
    3.1815 	   49.3105 	   23.0000 	    2.0000 	   41.6380 
    3.1357 	   49.3315 	   23.0000 	    2.0000 	   41.6800 
    2.9679 	   49.3525 	   23.0000 	    2.0000 	   41.7220 
    3.3951 	   49.3745 	   23.0000 	    2.0000 	   41.7660 
    2.9374 	   49.3960 	   23.0000 	    2.0000 	   41.8090 
    3.1052 	   49.4170 	   23.0000 	    2.0000 	   41.8510 
    3.2273 	   49.4375 	   23.0000 	    2.0000 	   41.8920 
    3.2731 	   49.4590 	   23.0000 	    2.0000 	   41.9350 
    3.2425 	   49.4805 	   23.0000 	    2.0000 	   41.9780 
    3.2425 	   49.5020 	   23.0000 	    2.0000 	   42.0210 
    3.2425 	   49.5225 	   23.0000 	    2.0000 	   42.0620 
    3.3036 	   49.5430 	   23.0000 	    2.0000 	   42.1030 
    3.2578 	   49.5635 	   23.0000 	    2.0000 	   42.1440 
    3.1815 	   49.5850 	   23.0000 	    2.0000 	   42.1870 
    3.3188 	   49.6060 	   23.0000 	    2.0000 	   42.2281 
    3.3341 	   49.6270 	   23.0000 	    2.0000 	   42.2711 
    3.2425 	   49.6485 	   23.0000 	    2.0000 	   42.3141 
    3.1815 	   49.6685 	   23.0000 	    2.0000 	   42.3541 
    3.2578 	   49.6900 	   23.0000 	    2.0000 	   42.3971 
    3.0747 	   49.7125 	   23.0000 	    2.0000 	   42.4421 
    3.2578 	   49.7345 	   23.0000 	    2.0000 	   42.4861 
    3.2273 	   49.7550 	   23.0000 	    2.0000 	   42.5271 
    3.2120 	   49.7755 	   23.0000 	    2.0000 	   42.5681 
    3.3799 	   49.7960 	   23.0000 	    2.0000 	   42.6091 
    3.3036 	   49.8150 	   23.0000 	    2.0000 	   42.6471 
    3.5172 	   49.8340 	   23.0000 	    2.0000 	   42.6851 
    3.1662 	   49.8530 	   23.0000 	    2.0000 	   42.7231 
    3.2425 	   49.8735 	   23.0000 	    2.0000 	   42.7641 
    3.3341 	   49.8945 	   23.0000 	    2.0000 	   42.8061 
    3.1968 	   49.9150 	   23.0000 	    2.0000 	   42.8471 
    3.2578 	   49.9375 	   23.0000 	    2.0000 	   42.8921 
    3.3494 	   49.9590 	   23.0000 	    2.0000 	   42.9351 
    3.3494 	   49.9805 	   23.0000 	    2.0000 	   42.9781 
    3.3036 	   50.0025 	   23.0000 	    2.0000 	   43.0221 
    3.2425 	   50.0225 	   23.0000 	    2.0000 	   43.0621 
    3.1815 	   50.0450 	   23.0000 	    2.0000 	   43.1071 
    3.4409 	   50.0670 	   23.0000 	    2.0000 	   43.1511 
    3.2883 	   50.0880 	   23.0000 	    2.0000 	   43.1931 
    3.4562 	   50.1095 	   23.0000 	    2.0000 	   43.2361 
    3.2578 	   50.1315 	   23.0000 	    2.0000 	   43.2801 
    3.1052 	   50.1530 	   23.0000 	    2.0000 	   43.3231 
    3.3036 	   50.1755 	   23.0000 	    2.0000 	   43.3681 
    3.3188 	   50.1965 	   23.0000 	    2.0000 	   43.4101 
    3.2273 	   50.2180 	   23.0000 	    2.0000 	   43.4531 
    3.3646 	   50.2385 	   23.0000 	    2.0000 	   43.4941 
    3.2883 	   50.2605 	   23.0000 	    2.0000 	   43.5381 
    3.2120 	   50.2820 	   23.0000 	    2.0000 	   43.5811 
    3.2883 	   50.3040 	   23.0000 	    2.0000 	   43.6251 
    3.3494 	   50.3245 	   23.0000 	    2.0000 	   43.6661 
    3.3951 	   50.3460 	   23.0000 	    2.0000 	   43.7091 
    3.2578 	   50.3675 	   23.0000 	    2.0000 	   43.7521 
    3.2883 	   50.3880 	   23.0000 	    2.0000 	   43.7931 
    3.3341 	   50.4105 	   23.0000 	    2.0000 	   43.8381 
    3.2578 	   50.4320 	   23.0000 	    2.0000 	   43.8811 
    3.4104 	   50.4525 	   23.0000 	    2.0000 	   43.9221 
    3.2578 	   50.4740 	   23.0000 	    2.0000 	   43.9651 
    3.3799 	   50.4955 	   23.0000 	    2.0000 	   44.0082 
    3.4409 	   50.5165 	   23.0000 	    2.0000 	   44.0502 
    3.3799 	   50.5365 	   23.0000 	    2.0000 	   44.0902 
    3.3951 	   50.5570 	   23.0000 	    2.0000 	   44.1312 
    3.4257 	   50.5780 	   23.0000 	    2.0000 	   44.1732 
    3.3341 	   50.5980 	   23.0000 	    2.0000 	   44.2132 
    3.3188 	   50.6190 	   23.0000 	    2.0000 	   44.2552 
    3.3494 	   50.6405 	   23.0000 	    2.0000 	   44.2982 
    3.4409 	   50.6620 	   23.0000 	    2.0000 	   44.3412 
    3.2578 	   50.6825 	   23.0000 	    2.0000 	   44.3822 
    3.3188 	   50.7030 	   23.0000 	    2.0000 	   44.4232 
    3.3341 	   50.7240 	   23.0000 	    2.0000 	   44.4652 
    3.3188 	   50.7455 	   23.0000 	    2.0000 	   44.5082 
    3.3036 	   50.7660 	   23.0000 	    2.0000 	   44.5492 
    3.4257 	   50.7875 	   23.0000 	    2.0000 	   44.5922 
    3.3646 	   50.8095 	   23.0000 	    2.0000 	   44.6362 
    3.3646 	   50.8310 	   23.0000 	    2.0000 	   44.6792 
    3.3494 	   50.8515 	   23.0000 	    2.0000 	   44.7202 
    3.2578 	   50.8725 	   23.0000 	    2.0000 	   44.7622 
    3.5019 	   50.8930 	   23.0000 	    2.0000 	   44.8032 
    3.4409 	   50.9150 	   23.0000 	    2.0000 	   44.8472 
    3.3494 	   50.9345 	   23.0000 	    2.0000 	   44.8862 
    3.3646 	   50.9555 	   23.0000 	    2.0000 	   44.9282 
    3.3646 	   50.9755 	   23.0000 	    2.0000 	   44.9682 
    3.3799 	   50.9960 	   23.0000 	    2.0000 	   45.0092 
    3.5172 	   51.0170 	   23.0000 	    2.0000 	   45.0512 
    3.2731 	   51.0395 	   23.0000 	    2.0000 	   45.0962 
    3.2731 	   51.0625 	   23.0000 	    2.0000 	   45.1422 
    3.4409 	   51.0830 	   23.0000 	    2.0000 	   45.1832 
    3.3646 	   51.1040 	   23.0000 	    2.0000 	   45.2252 
    3.3951 	   51.1250 	   23.0000 	    2.0000 	   45.2672 
    3.4562 	   51.1460 	   23.0000 	    2.0000 	   45.3092 
    3.4714 	   51.1685 	   23.0000 	    2.0000 	   45.3542 
    3.3341 	   51.1895 	   23.0000 	    2.0000 	   45.3962 
    3.3799 	   51.2105 	   23.0000 	    2.0000 	   45.4382 
    3.4867 	   51.2320 	   23.0000 	    2.0000 	   45.4812 
    3.5019 	   51.2530 	   23.0000 	    2.0000 	   45.5232 
    3.4714 	   51.2735 	   23.0000 	    2.0000 	   45.5642 
    3.5172 	   51.2940 	   23.0000 	    2.0000 	   45.6052 
    3.4409 	   51.3205 	   23.0000 	    2.0000 	   45.6582 
    3.3646 	   51.3440 	   23.0000 	    2.0000 	   45.7052 
    3.4104 	   51.3645 	   23.0000 	    2.0000 	   45.7463 
    3.5630 	   51.3855 	   23.0000 	    2.0000 	   45.7883 
    3.4409 	   51.4080 	   23.0000 	    2.0000 	   45.8333 
    3.5325 	   51.4310 	   23.0000 	    2.0000 	   45.8793 
    3.3951 	   51.4525 	   23.0000 	    2.0000 	   45.9223 
    3.4562 	   51.4750 	   23.0000 	    2.0000 	   45.9673 
    3.4409 	   51.4955 	   23.0000 	    2.0000 	   46.0083 
    3.3799 	   51.5170 	   23.0000 	    2.0000 	   46.0513 
    3.5172 	   51.5390 	   23.0000 	    2.0000 	   46.0953 
    3.4257 	   51.5605 	   23.0000 	    2.0000 	   46.1383 
    3.4714 	   51.5830 	   23.0000 	    2.0000 	   46.1833 
    3.5019 	   51.6045 	   23.0000 	    2.0000 	   46.2263 
    3.6088 	   51.6270 	   23.0000 	    2.0000 	   46.2713 
    3.4867 	   51.6480 	   23.0000 	    2.0000 	   46.3133 
    3.5477 	   51.6720 	   23.0000 	    2.0000 	   46.3613 
    3.3646 	   51.6930 	   23.0000 	    2.0000 	   46.4033 
    3.5782 	   51.7155 	   23.0000 	    2.0000 	   46.4483 
    3.3951 	   51.7375 	   23.0000 	    2.0000 	   46.4923 
    3.1968 	   51.7585 	   23.0000 	    2.0000 	   46.5343 
    3.4257 	   51.7800 	   23.0000 	    2.0000 	   46.5773 
    3.3951 	   51.8015 	   23.0000 	    2.0000 	   46.6203 
    3.5935 	   51.8235 	   23.0000 	    2.0000 	   46.6643 
    3.5172 	   51.8460 	   23.0000 	    2.0000 	   46.7093 
    3.4257 	   51.8675 	   23.0000 	    2.0000 	   46.7523 
    3.5019 	   51.8890 	   23.0000 	    2.0000 	   46.7953 
    3.4257 	   51.9105 	   23.0000 	    2.0000 	   46.8383 
    3.6088 	   51.9305 	   23.0000 	    2.0000 	   46.8783 
    3.5172 	   51.9495 	   23.0000 	    2.0000 	   46.9163 
    3.4867 	   51.9710 	   23.0000 	    2.0000 	   46.9593 
    3.4867 	   51.9925 	   23.0000 	    2.0000 	   47.0023 
    3.4562 	   52.0145 	   23.0000 	    2.0000 	   47.0463 
    3.4409 	   52.0365 	   23.0000 	    2.0000 	   47.0903 
    3.4257 	   52.0605 	   23.0000 	    2.0000 	   47.1383 
    3.3646 	   52.0820 	   23.0000 	    2.0000 	   47.1813 
    3.4562 	   52.1040 	   23.0000 	    2.0000 	   47.2253 
    3.4104 	   52.1255 	   23.0000 	    2.0000 	   47.2683 
    3.4867 	   52.1475 	   23.0000 	    2.0000 	   47.3123 
    3.5325 	   52.1685 	   23.0000 	    2.0000 	   47.3543 
    3.3341 	   52.1895 	   23.0000 	    2.0000 	   47.3963 
    3.4257 	   52.2110 	   23.0000 	    2.0000 	   47.4394 
    3.5172 	   52.2325 	   23.0000 	    2.0000 	   47.4824 
    3.6088 	   52.2530 	   23.0000 	    2.0000 	   47.5234 
    3.5019 	   52.2750 	   23.0000 	    2.0000 	   47.5674 
    3.5019 	   52.2960 	   23.0000 	    2.0000 	   47.6094 
    3.4714 	   52.3205 	   23.0000 	    2.0000 	   47.6584 
    3.7766 	   52.3420 	   23.0000 	    2.0000 	   47.7014 
    3.5935 	   52.3630 	   23.0000 	    2.0000 	   47.7434 
    3.6851 	   52.3855 	   23.0000 	    2.0000 	   47.7884 
    3.4714 	   52.4075 	   23.0000 	    2.0000 	   47.8324 
    3.5325 	   52.4295 	   23.0000 	    2.0000 	   47.8764 
    3.7156 	   52.4515 	   23.0000 	    2.0000 	   47.9204 
    3.5325 	   52.4740 	   23.0000 	    2.0000 	   47.9654 
    3.5325 	   52.4960 	   23.0000 	    2.0000 	   48.0094 
    3.5477 	   52.5175 	   23.0000 	    2.0000 	   48.0524 
    3.5935 	   52.5405 	   23.0000 	    2.0000 	   48.0984 
    3.6393 	   52.5620 	   23.0000 	    2.0000 	   48.1414 
    3.4867 	   52.5835 	   23.0000 	    2.0000 	   48.1844 
    3.5019 	   52.6040 	   23.0000 	    2.0000 	   48.2254 
    3.4409 	   52.6255 	   23.0000 	    2.0000 	   48.2684 
    3.5782 	   52.6480 	   23.0000 	    2.0000 	   48.3134 
    3.5172 	   52.6690 	   23.0000 	    2.0000 	   48.3554 
    3.6851 	   52.6920 	   23.0000 	    2.0000 	   48.4014 
    3.6088 	   52.7135 	   23.0000 	    2.0000 	   48.4444 
    3.6393 	   52.7365 	   23.0000 	    2.0000 	   48.4904 
    3.4714 	   52.7575 	   23.0000 	    2.0000 	   48.5324 
    3.5172 	   52.7805 	   23.0000 	    2.0000 	   48.5784 
    3.4409 	   52.8025 	   23.0000 	    2.0000 	   48.6224 
    3.5019 	   52.8245 	   23.0000 	    2.0000 	   48.6664 
    3.5630 	   52.8465 	   23.0000 	    2.0000 	   48.7104 
    3.6088 	   52.8680 	   23.0000 	    2.0000 	   48.7534 
    3.5935 	   52.8890 	   23.0000 	    2.0000 	   48.7954 
    3.6393 	   52.9110 	   23.0000 	    2.0000 	   48.8394 
    3.6393 	   52.9335 	   23.0000 	    2.0000 	   48.8844 
    3.6240 	   52.9550 	   23.0000 	    2.0000 	   48.9274 
    3.5935 	   52.9765 	   23.0000 	    2.0000 	   48.9704 
    3.7156 	   52.9980 	   23.0000 	    2.0000 	   49.0134 
    3.6088 	   53.0175 	   23.0000 	    2.0000 	   49.0524 
    3.5172 	   53.0365 	   23.0000 	    2.0000 	   49.0904 
    3.4867 	   53.0600 	   23.0000 	    2.0000 	   49.1374 
    3.7308 	   53.0815 	   23.0000 	    2.0000 	   49.1805 
    3.6393 	   53.1030 	   23.0000 	    2.0000 	   49.2234 
    3.5477 	   53.1225 	   23.0000 	    2.0000 	   49.2625 
    3.5630 	   53.1430 	   23.0000 	    2.0000 	   49.3035 
    3.2425 	   53.1640 	   23.0000 	    2.0000 	   49.3455 
    3.5782 	   53.1860 	   23.0000 	    2.0000 	   49.3895 
    3.5477 	   53.2075 	   23.0000 	    2.0000 	   49.4325 
    3.7003 	   53.2305 	   23.0000 	    2.0000 	   49.4785 
    3.6851 	   53.2515 	   23.0000 	    2.0000 	   49.5205 
    3.7461 	   53.2735 	   23.0000 	    2.0000 	   49.5645 
    3.5935 	   53.2950 	   23.0000 	    2.0000 	   49.6075 
    3.6698 	   53.3175 	   23.0000 	    2.0000 	   49.6525 
    3.6698 	   53.3390 	   23.0000 	    2.0000 	   49.6955 
    3.5477 	   53.3600 	   23.0000 	    2.0000 	   49.7375 
    3.5172 	   53.3820 	   23.0000 	    2.0000 	   49.7815 
    3.5172 	   53.4045 	   23.0000 	    2.0000 	   49.8265 
    3.8529 	   53.4270 	   23.0000 	    2.0000 	   49.8715 
    3.6088 	   53.4475 	   23.0000 	    2.0000 	   49.9125 
    3.6851 	   53.4705 	   23.0000 	    2.0000 	   49.9585 
    3.6393 	   53.4910 	   23.0000 	    2.0000 	   49.9995 
    3.6851 	   53.5130 	   23.0000 	    2.0000 	   50.0435 
    3.6240 	   53.5355 	   23.0000 	    2.0000 	   50.0885 
    3.6088 	   53.5565 	   23.0000 	    2.0000 	   50.1305 
    3.4867 	   53.5785 	   23.0000 	    2.0000 	   50.1745 
    3.7003 	   53.6000 	   23.0000 	    2.0000 	   50.2175 
    3.5935 	   53.6200 	   23.0000 	    2.0000 	   50.2575 
    3.7308 	   53.6425 	   23.0000 	    2.0000 	   50.3025 
    3.7613 	   53.6645 	   23.0000 	    2.0000 	   50.3465 
    3.6393 	   53.6860 	   23.0000 	    2.0000 	   50.3885 
    3.7308 	   53.7070 	   23.0000 	    2.0000 	   50.4315 
    3.7308 	   53.7285 	   23.0000 	    2.0000 	   50.4745 
    3.6088 	   53.7515 	   23.0000 	    2.0000 	   50.5205 
    3.6088 	   53.7715 	   23.0000 	    2.0000 	   50.5605 
    3.6851 	   53.7935 	   23.0000 	    2.0000 	   50.6045 
    3.5630 	   53.8150 	   23.0000 	    2.0000 	   50.6475 
    3.5935 	   53.8370 	   23.0000 	    2.0000 	   50.6915 
    3.7308 	   53.8590 	   23.0000 	    2.0000 	   50.7355 
    3.6698 	   53.8815 	   23.0000 	    2.0000 	   50.7805 
    3.6851 	   53.9030 	   23.0000 	    2.0000 	   50.8235 
    3.6851 	   53.9250 	   23.0000 	    2.0000 	   50.8675 
    3.6393 	   53.9465 	   23.0000 	    2.0000 	   50.9105 
    3.6393 	   53.9675 	   23.0000 	    2.0000 	   50.9526 
    3.8224 	   53.9890 	   23.0000 	    2.0000 	   50.9956 
    3.6393 	   54.0080 	   23.0000 	    2.0000 	   51.0336 
    3.6545 	   54.0290 	   23.0000 	    2.0000 	   51.0756 
    3.7766 	   54.0510 	   23.0000 	    2.0000 	   51.1196 
    3.7919 	   54.0700 	   23.0000 	    2.0000 	   51.1576 
    3.4867 	   54.0890 	   23.0000 	    2.0000 	   51.1956 
    3.6698 	   54.1080 	   23.0000 	    2.0000 	   51.2336 
    3.6851 	   54.1275 	   23.0000 	    2.0000 	   51.2726 
    3.7766 	   54.1470 	   23.0000 	    2.0000 	   51.3116 
    3.7461 	   54.1655 	   23.0000 	    2.0000 	   51.3486 
    3.7613 	   54.1850 	   23.0000 	    2.0000 	   51.3876 
    3.6240 	   54.2040 	   23.0000 	    2.0000 	   51.4256 
    3.6240 	   54.2230 	   23.0000 	    2.0000 	   51.4636 
    3.8071 	   54.2415 	   23.0000 	    2.0000 	   51.5006 
    3.6545 	   54.2615 	   23.0000 	    2.0000 	   51.5406 
    3.7308 	   54.2810 	   23.0000 	    2.0000 	   51.5796 
    3.7003 	   54.3025 	   23.0000 	    2.0000 	   51.6226 
    3.6851 	   54.3235 	   23.0000 	    2.0000 	   51.6646 
    3.6698 	   54.3450 	   23.0000 	    2.0000 	   51.7076 
    3.6545 	   54.3670 	   23.0000 	    2.0000 	   51.7516 
    3.7766 	   54.3885 	   23.0000 	    2.0000 	   51.7946 
    3.7003 	   54.4105 	   23.0000 	    2.0000 	   51.8386 
    3.7003 	   54.4315 	   23.0000 	    2.0000 	   51.8806 
    3.7919 	   54.4535 	   23.0000 	    2.0000 	   51.9246 
    3.6088 	   54.4755 	   23.0000 	    2.0000 	   51.9686 
    3.7613 	   54.4970 	   23.0000 	    2.0000 	   52.0116 
    3.7919 	   54.5185 	   23.0000 	    2.0000 	   52.0546 
    3.6851 	   54.5405 	   23.0000 	    2.0000 	   52.0986 
    3.4409 	   54.5625 	   23.0000 	    2.0000 	   52.1426 
    3.8682 	   54.5835 	   23.0000 	    2.0000 	   52.1846 
    3.8834 	   54.6055 	   23.0000 	    2.0000 	   52.2286 
    3.7003 	   54.6270 	   23.0000 	    2.0000 	   52.2716 
    3.8987 	   54.6470 	   23.0000 	    2.0000 	   52.3116 
    3.7919 	   54.6685 	   23.0000 	    2.0000 	   52.3546 
    3.7461 	   54.6895 	   23.0000 	    2.0000 	   52.3966 
    3.6851 	   54.7105 	   23.0000 	    2.0000 	   52.4386 
    3.6393 	   54.7315 	   23.0000 	    2.0000 	   52.4806 
    3.7613 	   54.7510 	   23.0000 	    2.0000 	   52.5196 
    3.7919 	   54.7725 	   23.0000 	    2.0000 	   52.5626 
    3.7766 	   54.7935 	   23.0000 	    2.0000 	   52.6046 
    3.7308 	   54.8145 	   23.0000 	    2.0000 	   52.6466 
    3.8376 	   54.8355 	   23.0000 	    2.0000 	   52.6887 
    3.7156 	   54.8570 	   23.0000 	    2.0000 	   52.7317 
    3.7461 	   54.8790 	   23.0000 	    2.0000 	   52.7757 
    3.8376 	   54.9000 	   23.0000 	    2.0000 	   52.8177 
    3.7003 	   54.9210 	   23.0000 	    2.0000 	   52.8597 
    3.6393 	   54.9420 	   23.0000 	    2.0000 	   52.9017 
    3.8987 	   54.9635 	   23.0000 	    2.0000 	   52.9447 
    3.8529 	   54.9865 	   23.0000 	    2.0000 	   52.9907 
    3.9292 	   55.0075 	   23.0000 	    2.0000 	   53.0327 
    3.7156 	   55.0310 	   23.0000 	    2.0000 	   53.0797 
    3.7766 	   55.0745 	   23.0000 	    2.0000 	   53.1667 
    3.7613 	   55.0955 	   23.0000 	    2.0000 	   53.2087 
    3.9292 	   55.1175 	   23.0000 	    2.0000 	   53.2527 
    3.8529 	   55.1395 	   23.0000 	    2.0000 	   53.2967 
    3.8376 	   55.1610 	   23.0000 	    2.0000 	   53.3397 
    3.6698 	   55.1825 	   23.0000 	    2.0000 	   53.3827 
    3.7308 	   55.2045 	   23.0000 	    2.0000 	   53.4267 
    3.7613 	   55.2265 	   23.0000 	    2.0000 	   53.4707 
    3.9139 	   55.2470 	   23.0000 	    2.0000 	   53.5117 
    3.7766 	   55.2690 	   23.0000 	    2.0000 	   53.5557 
    3.7003 	   55.2905 	   23.0000 	    2.0000 	   53.5987 
    3.8071 	   55.3105 	   23.0000 	    2.0000 	   53.6387 
    3.8529 	   55.3325 	   23.0000 	    2.0000 	   53.6827 
    3.7156 	   55.3550 	   23.0000 	    2.0000 	   53.7267 
    3.7919 	   55.3755 	   23.0000 	    2.0000 	   53.7677 
    3.8224 	   55.3995 	   23.0000 	    2.0000 	   53.8157 
    3.8224 	   55.4210 	   23.0000 	    2.0000 	   53.8587 
    3.9139 	   55.4430 	   23.0000 	    2.0000 	   53.9027 
    3.8071 	   55.4650 	   23.0000 	    2.0000 	   53.9467 
    3.7003 	   55.4855 	   23.0000 	    2.0000 	   53.9877 
    3.6545 	   55.5065 	   23.0000 	    2.0000 	   54.0297 
    3.8834 	   55.5270 	   23.0000 	    2.0000 	   54.0707 
    3.7766 	   55.5495 	   23.0000 	    2.0000 	   54.1157 
    3.8834 	   55.5715 	   23.0000 	    2.0000 	   54.1597 
    3.8682 	   55.5930 	   23.0000 	    2.0000 	   54.2027 
    3.8987 	   55.6140 	   23.0000 	    2.0000 	   54.2447 
    3.9597 	   55.6350 	   23.0000 	    2.0000 	   54.2867 
    3.9445 	   55.6575 	   23.0000 	    2.0000 	   54.3317 
    3.8376 	   55.6790 	   23.0000 	    2.0000 	   54.3747 
    3.7461 	   55.7005 	   23.0000 	    2.0000 	   54.4177 
    3.8071 	   55.7225 	   23.0000 	    2.0000 	   54.4618 
    3.7613 	   55.7435 	   23.0000 	    2.0000 	   54.5038 
    3.7613 	   55.7670 	   23.0000 	    2.0000 	   54.5508 
    3.8376 	   55.7890 	   23.0000 	    2.0000 	   54.5948 
    3.9597 	   55.8115 	   23.0000 	    2.0000 	   54.6398 
    3.5019 	   55.8330 	   23.0000 	    2.0000 	   54.6828 
    3.7003 	   55.8560 	   23.0000 	    2.0000 	   54.7288 
    3.8682 	   55.8785 	   23.0000 	    2.0000 	   54.7738 
    3.8529 	   55.9005 	   23.0000 	    2.0000 	   54.8178 
    3.9445 	   55.9220 	   23.0000 	    2.0000 	   54.8608 
    3.8529 	   55.9440 	   23.0000 	    2.0000 	   54.9048 
    3.8376 	   55.9655 	   23.0000 	    2.0000 	   54.9478 
    3.8987 	   55.9870 	   23.0000 	    2.0000 	   54.9908 
    3.8682 	   56.0085 	   23.0000 	    2.0000 	   55.0338 
    3.9597 	   56.0295 	   23.0000 	    2.0000 	   55.0758 
    3.7003 	   56.0535 	   23.0000 	    2.0000 	   55.1238 
    3.9445 	   56.0750 	   23.0000 	    2.0000 	   55.1668 
    3.8834 	   56.0960 	   23.0000 	    2.0000 	   55.2088 
    3.9750 	   56.1175 	   23.0000 	    2.0000 	   55.2518 
    3.7766 	   56.1395 	   23.0000 	    2.0000 	   55.2958 
    3.9750 	   56.1610 	   23.0000 	    2.0000 	   55.3388 
    3.8834 	   56.1825 	   23.0000 	    2.0000 	   55.3818 
    3.8987 	   56.2040 	   23.0000 	    2.0000 	   55.4248 
    4.0818 	   56.2255 	   23.0000 	    2.0000 	   55.4678 
    4.0055 	   56.2480 	   23.0000 	    2.0000 	   55.5128 
    3.9292 	   56.2710 	   23.0000 	    2.0000 	   55.5588 
    3.8224 	   56.2930 	   23.0000 	    2.0000 	   55.6028 
    4.0665 	   56.3210 	   23.0000 	    2.0000 	   55.6588 
    4.0055 	   56.3435 	   23.0000 	    2.0000 	   55.7038 
    3.7919 	   56.3650 	   23.0000 	    2.0000 	   55.7468 
    3.8071 	   56.3880 	   23.0000 	    2.0000 	   55.7928 
    3.8682 	   56.4085 	   23.0000 	    2.0000 	   55.8338 
    3.9902 	   56.4315 	   23.0000 	    2.0000 	   55.8798 
    3.9445 	   56.4530 	   23.0000 	    2.0000 	   55.9228 
    3.9292 	   56.4745 	   23.0000 	    2.0000 	   55.9658 
    3.9292 	   56.4960 	   23.0000 	    2.0000 	   56.0088 
    3.8224 	   56.5175 	   23.0000 	    2.0000 	   56.0518 
    3.8376 	   56.5395 	   23.0000 	    2.0000 	   56.0958 
    3.9292 	   56.5620 	   23.0000 	    2.0000 	   56.1408 
    3.8224 	   56.5840 	   23.0000 	    2.0000 	   56.1848 
    4.0208 	   56.6060 	   23.0000 	    2.0000 	   56.2289 
    3.9292 	   56.6275 	   23.0000 	    2.0000 	   56.2719 
    4.0208 	   56.6500 	   23.0000 	    2.0000 	   56.3169 
    3.9750 	   56.6710 	   23.0000 	    2.0000 	   56.3589 
    3.9597 	   56.6935 	   23.0000 	    2.0000 	   56.4039 
    3.9597 	   56.7155 	   23.0000 	    2.0000 	   56.4479 
    4.0360 	   56.7355 	   23.0000 	    2.0000 	   56.4879 
    4.0513 	   56.7570 	   23.0000 	    2.0000 	   56.5309 
    3.9750 	   56.7780 	   23.0000 	    2.0000 	   56.5729 
    3.9902 	   56.7985 	   23.0000 	    2.0000 	   56.6139 
    3.9139 	   56.8180 	   23.0000 	    2.0000 	   56.6529 
    4.0970 	   56.8375 	   23.0000 	    2.0000 	   56.6919 
    3.9292 	   56.8570 	   23.0000 	    2.0000 	   56.7309 
    3.8682 	   56.8765 	   23.0000 	    2.0000 	   56.7699 
    3.9902 	   56.8965 	   23.0000 	    2.0000 	   56.8099 
    3.6088 	   56.9160 	   23.0000 	    2.0000 	   56.8489 
    3.9292 	   56.9355 	   23.0000 	    2.0000 	   56.8879 
    3.7308 	   56.9550 	   23.0000 	    2.0000 	   56.9269 
    3.9597 	   56.9760 	   23.0000 	    2.0000 	   56.9689 
    4.0818 	   56.9965 	   23.0000 	    2.0000 	   57.0099 
    4.0818 	   57.0160 	   23.0000 	    2.0000 	   57.0489 
    4.0055 	   57.0355 	   23.0000 	    2.0000 	   57.0879 
    3.9902 	   57.0555 	   23.0000 	    2.0000 	   57.1279 
    3.9750 	   57.0745 	   23.0000 	    2.0000 	   57.1659 
    3.9750 	   57.0935 	   23.0000 	    2.0000 	   57.2039 
    4.0970 	   57.1135 	   23.0000 	    2.0000 	   57.2439 
    4.0055 	   57.1330 	   23.0000 	    2.0000 	   57.2829 
    3.9902 	   57.1530 	   23.0000 	    2.0000 	   57.3229 
    3.9750 	   57.1720 	   23.0000 	    2.0000 	   57.3609 
    3.9139 	   57.1915 	   23.0000 	    2.0000 	   57.3999 
    4.0665 	   57.2120 	   23.0000 	    2.0000 	   57.4409 
    4.1123 	   57.2315 	   23.0000 	    2.0000 	   57.4799 
    4.0055 	   57.2505 	   23.0000 	    2.0000 	   57.5179 
    4.0665 	   57.2715 	   23.0000 	    2.0000 	   57.5599 
    4.0818 	   57.2910 	   23.0000 	    2.0000 	   57.5989 
    4.0513 	   57.3105 	   23.0000 	    2.0000 	   57.6379 
    4.1428 	   57.3300 	   23.0000 	    2.0000 	   57.6769 
    4.1428 	   57.3490 	   23.0000 	    2.0000 	   57.7149 
    4.0970 	   57.3690 	   23.0000 	    2.0000 	   57.7549 
    4.0055 	   57.3890 	   23.0000 	    2.0000 	   57.7949 
    4.1428 	   57.4085 	   23.0000 	    2.0000 	   57.8339 
    4.1428 	   57.4290 	   23.0000 	    2.0000 	   57.8749 
    4.0665 	   57.4480 	   23.0000 	    2.0000 	   57.9129 
    4.1123 	   57.4675 	   23.0000 	    2.0000 	   57.9520 
    4.0360 	   57.4870 	   23.0000 	    2.0000 	   57.9910 
    4.0055 	   57.5065 	   23.0000 	    2.0000 	   58.0300 
    3.8071 	   57.5260 	   23.0000 	    2.0000 	   58.0690 
    4.0665 	   57.5455 	   23.0000 	    2.0000 	   58.1080 
    4.0665 	   57.5650 	   23.0000 	    2.0000 	   58.1470 
    4.1733 	   57.5845 	   23.0000 	    2.0000 	   58.1860 
    3.9902 	   57.6040 	   23.0000 	    2.0000 	   58.2250 
    3.8834 	   57.6240 	   23.0000 	    2.0000 	   58.2650 
    4.1123 	   57.6435 	   23.0000 	    2.0000 	   58.3040 
    3.9445 	   57.6625 	   23.0000 	    2.0000 	   58.3420 
    4.0513 	   57.6820 	   23.0000 	    2.0000 	   58.3810 
    4.0513 	   57.7020 	   23.0000 	    2.0000 	   58.4210 
    3.9597 	   57.7215 	   23.0000 	    2.0000 	   58.4600 
    4.0970 	   57.7410 	   23.0000 	    2.0000 	   58.4990 
    4.2039 	   57.7605 	   23.0000 	    2.0000 	   58.5380 
    4.1428 	   57.7805 	   23.0000 	    2.0000 	   58.5780 
    4.0513 	   57.8025 	   23.0000 	    2.0000 	   58.6220 
    3.9139 	   57.8225 	   23.0000 	    2.0000 	   58.6620 
    4.1276 	   57.8420 	   23.0000 	    2.0000 	   58.7010 
    4.0665 	   57.8615 	   23.0000 	    2.0000 	   58.7400 
    4.1276 	   57.8810 	   23.0000 	    2.0000 	   58.7790 
    4.0818 	   57.9005 	   23.0000 	    2.0000 	   58.8180 
    4.1123 	   57.9205 	   23.0000 	    2.0000 	   58.8580 
    4.1733 	   57.9405 	   23.0000 	    2.0000 	   58.8980 
    4.0665 	   57.9600 	   23.0000 	    2.0000 	   58.9370 
    4.0665 	   57.9795 	   23.0000 	    2.0000 	   58.9760 
    4.1428 	   57.9995 	   23.0000 	    2.0000 	   59.0160 
    4.2191 	   58.0215 	   23.0000 	    2.0000 	   59.0600 
    4.0818 	   58.0430 	   23.0000 	    2.0000 	   59.1030 
    4.1886 	   58.0660 	   23.0000 	    2.0000 	   59.1490 
    4.2191 	   58.0880 	   23.0000 	    2.0000 	   59.1930 
    4.1581 	   58.1095 	   23.0000 	    2.0000 	   59.2360 
    4.1123 	   58.1305 	   23.0000 	    2.0000 	   59.2780 
    4.1276 	   58.1535 	   23.0000 	    2.0000 	   59.3240 
    4.2039 	   58.1755 	   23.0000 	    2.0000 	   59.3680 
    4.1886 	   58.1970 	   23.0000 	    2.0000 	   59.4110 
    4.1428 	   58.2190 	   23.0000 	    2.0000 	   59.4550 
    4.1886 	   58.2420 	   23.0000 	    2.0000 	   59.5010 
    4.2649 	   58.2640 	   23.0000 	    2.0000 	   59.5450 
    3.9750 	   58.2865 	   23.0000 	    2.0000 	   59.5900 
    4.0818 	   58.3085 	   23.0000 	    2.0000 	   59.6340 
    4.0055 	   58.3310 	   23.0000 	    2.0000 	   59.6791 
    4.1428 	   58.3530 	   23.0000 	    2.0000 	   59.7231 
    4.1276 	   58.3760 	   23.0000 	    2.0000 	   59.7691 
    4.1276 	   58.3970 	   23.0000 	    2.0000 	   59.8111 
    4.1581 	   58.4185 	   23.0000 	    2.0000 	   59.8541 
    4.1123 	   58.4405 	   23.0000 	    2.0000 	   59.8981 
    4.2344 	   58.4625 	   23.0000 	    2.0000 	   59.9421 
    4.1428 	   58.4850 	   23.0000 	    2.0000 	   59.9871 
    4.0208 	   58.5070 	   23.0000 	    3.0000 	    0.0311 
    4.1428 	   58.5280 	   23.0000 	    3.0000 	    0.0731 
    4.1733 	   58.5510 	   23.0000 	    3.0000 	    0.1191 
    4.2496 	   58.5730 	   23.0000 	    3.0000 	    0.1631 
    4.1276 	   58.5955 	   23.0000 	    3.0000 	    0.2081 
    4.3259 	   58.6170 	   23.0000 	    3.0000 	    0.2511 
    4.1733 	   58.6385 	   23.0000 	    3.0000 	    0.2941 
    4.2649 	   58.6615 	   23.0000 	    3.0000 	    0.3401 
    4.2191 	   58.6830 	   23.0000 	    3.0000 	    0.3831 
    4.2649 	   58.7025 	   23.0000 	    3.0000 	    0.4221 
    4.1886 	   58.7220 	   23.0000 	    3.0000 	    0.4611 
    4.2039 	   58.7440 	   23.0000 	    3.0000 	    0.5051 
    4.2496 	   58.7655 	   23.0000 	    3.0000 	    0.5481 
    4.0513 	   58.7880 	   23.0000 	    3.0000 	    0.5931 
    4.3870 	   58.8110 	   23.0000 	    3.0000 	    0.6391 
    4.2649 	   58.8325 	   23.0000 	    3.0000 	    0.6821 
    4.1581 	   58.8540 	   23.0000 	    3.0000 	    0.7251 
    4.2191 	   58.8760 	   23.0000 	    3.0000 	    0.7691 
    4.0818 	   58.8980 	   23.0000 	    3.0000 	    0.8131 
    4.2649 	   58.9200 	   23.0000 	    3.0000 	    0.8571 
    4.3107 	   58.9420 	   23.0000 	    3.0000 	    0.9011 
    4.2649 	   58.9640 	   23.0000 	    3.0000 	    0.9451 
    4.2649 	   58.9855 	   23.0000 	    3.0000 	    0.9881 
    4.2496 	   59.0085 	   23.0000 	    3.0000 	    1.0341 
    4.2802 	   59.0300 	   23.0000 	    3.0000 	    1.0771 
    4.3717 	   59.0530 	   23.0000 	    3.0000 	    1.1231 
    4.3259 	   59.0745 	   23.0000 	    3.0000 	    1.1661 
    4.2954 	   59.0970 	   23.0000 	    3.0000 	    1.2111 
    4.3107 	   59.1195 	   23.0000 	    3.0000 	    1.2561 
    4.4480 	   59.1420 	   23.0000 	    3.0000 	    1.3011 
    4.2496 	   59.1640 	   23.0000 	    3.0000 	    1.3451 
    4.1886 	   59.1875 	   23.0000 	    3.0000 	    1.3921 
    4.0970 	   59.2090 	   23.0000 	    3.0000 	    1.4352 
    4.3412 	   59.2305 	   23.0000 	    3.0000 	    1.4782 
    4.4480 	   59.2515 	   23.0000 	    3.0000 	    1.5202 
    4.2039 	   59.2740 	   23.0000 	    3.0000 	    1.5652 
    4.3412 	   59.2940 	   23.0000 	    3.0000 	    1.6052 
    4.3565 	   59.3205 	   23.0000 	    3.0000 	    1.6582 
    4.1733 	   59.3390 	   23.0000 	    3.0000 	    1.6952 
    4.3412 	   59.3590 	   23.0000 	    3.0000 	    1.7352 
    4.2344 	   59.3810 	   23.0000 	    3.0000 	    1.7792 
    4.2802 	   59.4025 	   23.0000 	    3.0000 	    1.8222 
    4.3259 	   59.4245 	   23.0000 	    3.0000 	    1.8662 
    4.2191 	   59.4460 	   23.0000 	    3.0000 	    1.9092 
    4.3412 	   59.4660 	   23.0000 	    3.0000 	    1.9492 
    4.3412 	   59.4855 	   23.0000 	    3.0000 	    1.9882 
    4.3565 	   59.5055 	   23.0000 	    3.0000 	    2.0282 
    4.0970 	   59.5270 	   23.0000 	    3.0000 	    2.0712 
    4.2954 	   59.5470 	   23.0000 	    3.0000 	    2.1112 
    4.2496 	   59.5660 	   23.0000 	    3.0000 	    2.1492 
    4.3259 	   59.5880 	   23.0000 	    3.0000 	    2.1932 
    4.2496 	   59.6095 	   23.0000 	    3.0000 	    2.2362 
    4.2496 	   59.6295 	   23.0000 	    3.0000 	    2.2762 
    4.2039 	   59.6490 	   23.0000 	    3.0000 	    2.3152 
    4.4480 	   59.6695 	   23.0000 	    3.0000 	    2.3562 
    4.3412 	   59.6920 	   23.0000 	    3.0000 	    2.4012 
    4.2496 	   59.7145 	   23.0000 	    3.0000 	    2.4462 
    4.2496 	   59.7360 	   23.0000 	    3.0000 	    2.4892 
    4.0513 	   59.7580 	   23.0000 	    3.0000 	    2.5332 
    4.4327 	   59.7810 	   23.0000 	    3.0000 	    2.5792 
    4.3412 	   59.8030 	   23.0000 	    3.0000 	    2.6232 
    4.3412 	   59.8260 	   23.0000 	    3.0000 	    2.6692 
    4.4022 	   59.8480 	   23.0000 	    3.0000 	    2.7132 
    4.2954 	   59.8700 	   23.0000 	    3.0000 	    2.7572 
    4.2191 	   59.8930 	   23.0000 	    3.0000 	    2.8032 
    4.4022 	   59.9145 	   23.0000 	    3.0000 	    2.8462 
