Thayer School of Engineering        Instron 4442 Mechanical Testing System
7/9/2018 3:25:43 AM

  Force (N)	Extension (mm)	Not Used	Not Used	Not Used	     Hour	    Minute	    Second
    1.2284 	    2.0340 	    3.0000 	   26.0000 	   12.7554 
    1.3046 	    2.0980 	    3.0000 	   26.0000 	   12.7884 
    1.2894 	    2.2400 	    3.0000 	   26.0000 	   12.8594 
    1.2894 	    2.3560 	    3.0000 	   26.0000 	   12.9174 
    1.3809 	    2.4160 	    3.0000 	   26.0000 	   12.9474 
    1.2894 	    2.4740 	    3.0000 	   26.0000 	   12.9764 
    1.3504 	    2.5900 	    3.0000 	   26.0000 	   13.0344 
    1.3352 	    2.6980 	    3.0000 	   26.0000 	   13.0884 
    1.4267 	    2.8000 	    3.0000 	   26.0000 	   13.1394 
    1.0452 	    2.8660 	    3.0000 	   26.0000 	   13.1724 
    1.3657 	    2.9780 	    3.0000 	   26.0000 	   13.2284 
    1.3504 	    3.0860 	    3.0000 	   26.0000 	   13.2824 
    1.4572 	    3.1880 	    3.0000 	   26.0000 	   13.3334 
    1.4420 	    3.2880 	    3.0000 	   26.0000 	   13.3834 
    1.3809 	    3.3900 	    3.0000 	   26.0000 	   13.4344 
    1.1521 	    3.4880 	    3.0000 	   26.0000 	   13.4834 
    1.5183 	    3.5460 	    3.0000 	   26.0000 	   13.5124 
    1.6403 	    3.6600 	    3.0000 	   26.0000 	   13.5694 
    1.4725 	    3.7640 	    3.0000 	   26.0000 	   13.6214 
    1.5183 	    3.8760 	    3.0000 	   26.0000 	   13.6774 
    1.4267 	    3.9840 	    3.0000 	   26.0000 	   13.7314 
    1.5030 	    4.0520 	    3.0000 	   26.0000 	   13.7654 
    1.6861 	    4.1680 	    3.0000 	   26.0000 	   13.8234 
    1.6251 	    4.2720 	    3.0000 	   26.0000 	   13.8754 
    1.6556 	    4.3700 	    3.0000 	   26.0000 	   13.9244 
    1.6251 	    4.4800 	    3.0000 	   26.0000 	   13.9794 
    1.6251 	    4.5920 	    3.0000 	   26.0000 	   14.0354 
    1.6251 	    4.6900 	    3.0000 	   26.0000 	   14.0844 
    1.7777 	    4.7480 	    3.0000 	   26.0000 	   14.1134 
    1.5946 	    4.8040 	    3.0000 	   26.0000 	   14.1414 
    1.6709 	    4.9140 	    3.0000 	   26.0000 	   14.1964 
    1.5793 	    5.0160 	    3.0000 	   26.0000 	   14.2474 
    1.8082 	    5.1240 	    3.0000 	   26.0000 	   14.3015 
    1.7319 	    5.2280 	    3.0000 	   26.0000 	   14.3535 
    1.6251 	    5.3360 	    3.0000 	   26.0000 	   14.4075 
    1.8235 	    5.4400 	    3.0000 	   26.0000 	   14.4595 
    1.8692 	    5.5420 	    3.0000 	   26.0000 	   14.5105 
    1.7014 	    5.6440 	    3.0000 	   26.0000 	   14.5615 
    1.7624 	    5.7080 	    3.0000 	   26.0000 	   14.5935 
    1.8540 	    5.8200 	    3.0000 	   26.0000 	   14.6495 
    1.7166 	    5.9240 	    3.0000 	   26.0000 	   14.7015 
    1.8997 	    6.0440 	    3.0000 	   26.0000 	   14.7615 
    1.8387 	    6.1460 	    3.0000 	   26.0000 	   14.8125 
    1.8082 	    6.2600 	    3.0000 	   26.0000 	   14.8695 
    1.8082 	    6.3180 	    3.0000 	   26.0000 	   14.8985 
    1.8082 	    6.3700 	    3.0000 	   26.0000 	   14.9245 
    1.5335 	    6.4280 	    3.0000 	   26.0000 	   14.9535 
    1.8540 	    6.4920 	    3.0000 	   26.0000 	   14.9855 
    1.9913 	    6.6040 	    3.0000 	   26.0000 	   15.0415 
    1.5946 	    6.6680 	    3.0000 	   26.0000 	   15.0735 
    1.9760 	    6.7860 	    3.0000 	   26.0000 	   15.1325 
    1.7777 	    6.8500 	    3.0000 	   26.0000 	   15.1645 
    1.8692 	    6.9160 	    3.0000 	   26.0000 	   15.1975 
    1.8997 	    6.9840 	    3.0000 	   26.0000 	   15.2315 
    2.0066 	    7.0520 	    3.0000 	   26.0000 	   15.2655 
    1.8235 	    7.1160 	    3.0000 	   26.0000 	   15.2975 
    1.9455 	    7.2320 	    3.0000 	   26.0000 	   15.3555 
    2.0066 	    7.3020 	    3.0000 	   26.0000 	   15.3905 
    1.9608 	    7.3640 	    3.0000 	   26.0000 	   15.4215 
    2.0371 	    7.4260 	    3.0000 	   26.0000 	   15.4525 
    1.8845 	    7.4860 	    3.0000 	   26.0000 	   15.4825 
    1.7777 	    7.5500 	    3.0000 	   26.0000 	   15.5145 
    1.9455 	    7.6120 	    3.0000 	   26.0000 	   15.5455 
    1.8845 	    7.6760 	    3.0000 	   26.0000 	   15.5775 
    1.9150 	    7.7440 	    3.0000 	   26.0000 	   15.6115 
    2.0676 	    7.8120 	    3.0000 	   26.0000 	   15.6455 
    2.0829 	    7.8800 	    3.0000 	   26.0000 	   15.6795 
    1.9150 	    7.9420 	    3.0000 	   26.0000 	   15.7105 
    2.0523 	    8.0040 	    3.0000 	   26.0000 	   15.7415 
    1.9760 	    8.0640 	    3.0000 	   26.0000 	   15.7715 
    2.1134 	    8.1240 	    3.0000 	   26.0000 	   15.8015 
    2.0829 	    8.1860 	    3.0000 	   26.0000 	   15.8325 
    2.0066 	    8.3000 	    3.0000 	   26.0000 	   15.8895 
    2.0829 	    8.3600 	    3.0000 	   26.0000 	   15.9195 
    2.0066 	    8.4160 	    3.0000 	   26.0000 	   15.9475 
    2.2049 	    8.4700 	    3.0000 	   26.0000 	   15.9745 
    2.0523 	    8.5380 	    3.0000 	   26.0000 	   16.0085 
    2.0829 	    8.6020 	    3.0000 	   26.0000 	   16.0406 
    2.0829 	    8.6640 	    3.0000 	   26.0000 	   16.0716 
    2.2202 	    8.7260 	    3.0000 	   26.0000 	   16.1026 
    2.0676 	    8.7840 	    3.0000 	   26.0000 	   16.1316 
    2.1286 	    8.8480 	    3.0000 	   26.0000 	   16.1636 
    2.2202 	    8.9060 	    3.0000 	   26.0000 	   16.1926 
    2.2965 	    8.9740 	    3.0000 	   26.0000 	   16.2266 
    2.2202 	    9.0420 	    3.0000 	   26.0000 	   16.2606 
    2.2507 	    9.1020 	    3.0000 	   26.0000 	   16.2906 
    2.2507 	    9.1660 	    3.0000 	   26.0000 	   16.3226 
    2.2202 	    9.2280 	    3.0000 	   26.0000 	   16.3536 
    2.0829 	    9.2860 	    3.0000 	   26.0000 	   16.3826 
    2.2049 	    9.3520 	    3.0000 	   26.0000 	   16.4156 
    1.8845 	    9.4060 	    3.0000 	   26.0000 	   16.4426 
    2.2965 	    9.4720 	    3.0000 	   26.0000 	   16.4756 
    2.0523 	    9.5380 	    3.0000 	   26.0000 	   16.5086 
    2.1286 	    9.5940 	    3.0000 	   26.0000 	   16.5366 
    2.2202 	    9.6560 	    3.0000 	   26.0000 	   16.5676 
    2.2660 	    9.7120 	    3.0000 	   26.0000 	   16.5956 
    2.2812 	    9.7760 	    3.0000 	   26.0000 	   16.6276 
    2.2660 	    9.8460 	    3.0000 	   26.0000 	   16.6626 
    2.2354 	    9.9060 	    3.0000 	   26.0000 	   16.6926 
    2.1592 	    9.9680 	    3.0000 	   26.0000 	   16.7236 
    2.2812 	   10.0280 	    3.0000 	   26.0000 	   16.7536 
    2.2354 	   10.0800 	    3.0000 	   26.0000 	   16.7796 
    2.2049 	   10.1380 	    3.0000 	   26.0000 	   16.8086 
    2.2812 	   10.1920 	    3.0000 	   26.0000 	   16.8356 
    2.2812 	   10.2480 	    3.0000 	   26.0000 	   16.8636 
    2.1744 	   10.3000 	    3.0000 	   26.0000 	   16.8896 
    2.2660 	   10.3520 	    3.0000 	   26.0000 	   16.9156 
    2.3270 	   10.4040 	    3.0000 	   26.0000 	   16.9416 
    2.2965 	   10.4600 	    3.0000 	   26.0000 	   16.9696 
    2.3270 	   10.5780 	    3.0000 	   26.0000 	   17.0286 
    2.0676 	   10.6400 	    3.0000 	   26.0000 	   17.0596 
    2.3728 	   10.7080 	    3.0000 	   26.0000 	   17.0936 
    2.3270 	   10.7720 	    3.0000 	   26.0000 	   17.1256 
    2.3423 	   10.8320 	    3.0000 	   26.0000 	   17.1556 
    2.3728 	   10.8900 	    3.0000 	   26.0000 	   17.1846 
    2.3728 	   10.9540 	    3.0000 	   26.0000 	   17.2166 
    2.4491 	   11.0140 	    3.0000 	   26.0000 	   17.2466 
    2.2049 	   11.0740 	    3.0000 	   26.0000 	   17.2766 
    2.4948 	   11.2020 	    3.0000 	   26.0000 	   17.3406 
    2.5864 	   11.2560 	    3.0000 	   26.0000 	   17.3676 
    2.3728 	   11.3200 	    3.0000 	   26.0000 	   17.3996 
    2.3423 	   11.3840 	    3.0000 	   26.0000 	   17.4316 
    2.4186 	   11.4420 	    3.0000 	   26.0000 	   17.4606 
    2.5101 	   11.5080 	    3.0000 	   26.0000 	   17.4936 
    2.5101 	   11.5740 	    3.0000 	   26.0000 	   17.5266 
    2.3270 	   11.6360 	    3.0000 	   26.0000 	   17.5576 
    2.3423 	   11.6960 	    3.0000 	   26.0000 	   17.5876 
    2.6017 	   11.7680 	    3.0000 	   26.0000 	   17.6236 
    2.3728 	   11.8300 	    3.0000 	   26.0000 	   17.6546 
    2.4491 	   11.8940 	    3.0000 	   26.0000 	   17.6866 
    2.4796 	   11.9560 	    3.0000 	   26.0000 	   17.7176 
    2.3575 	   12.0100 	    3.0000 	   26.0000 	   17.7446 
    2.5711 	   12.0640 	    3.0000 	   26.0000 	   17.7716 
    2.4186 	   12.1240 	    3.0000 	   26.0000 	   17.8017 
    2.3423 	   12.1760 	    3.0000 	   26.0000 	   17.8277 
    2.4948 	   12.2280 	    3.0000 	   26.0000 	   17.8537 
    2.6017 	   12.2800 	    3.0000 	   26.0000 	   17.8797 
    2.5864 	   12.3400 	    3.0000 	   26.0000 	   17.9097 
    2.4948 	   12.3900 	    3.0000 	   26.0000 	   17.9347 
    2.3423 	   12.4420 	    3.0000 	   26.0000 	   17.9607 
    2.5254 	   12.5040 	    3.0000 	   26.0000 	   17.9917 
    2.4033 	   12.5740 	    3.0000 	   26.0000 	   18.0267 
    2.6322 	   12.6380 	    3.0000 	   26.0000 	   18.0587 
    2.7237 	   12.6960 	    3.0000 	   26.0000 	   18.0877 
    2.6474 	   12.7600 	    3.0000 	   26.0000 	   18.1197 
    2.6017 	   12.8200 	    3.0000 	   26.0000 	   18.1497 
    2.4643 	   12.8800 	    3.0000 	   26.0000 	   18.1797 
    2.5559 	   12.9420 	    3.0000 	   26.0000 	   18.2107 
    2.5711 	   13.0080 	    3.0000 	   26.0000 	   18.2437 
    2.5711 	   13.0700 	    3.0000 	   26.0000 	   18.2747 
    2.6322 	   13.1360 	    3.0000 	   26.0000 	   18.3077 
    2.6627 	   13.1960 	    3.0000 	   26.0000 	   18.3377 
    2.6780 	   13.2560 	    3.0000 	   26.0000 	   18.3677 
    2.6780 	   13.3140 	    3.0000 	   26.0000 	   18.3967 
    2.4796 	   13.3800 	    3.0000 	   26.0000 	   18.4297 
    2.5559 	   13.4440 	    3.0000 	   26.0000 	   18.4617 
    2.6169 	   13.5080 	    3.0000 	   26.0000 	   18.4937 
    2.6322 	   13.5760 	    3.0000 	   26.0000 	   18.5277 
    2.6474 	   13.6440 	    3.0000 	   26.0000 	   18.5617 
    2.6627 	   13.7080 	    3.0000 	   26.0000 	   18.5937 
    2.6474 	   13.7720 	    3.0000 	   26.0000 	   18.6257 
    2.6017 	   13.8400 	    3.0000 	   26.0000 	   18.6597 
    2.7237 	   13.8980 	    3.0000 	   26.0000 	   18.6887 
    2.6627 	   13.9580 	    3.0000 	   26.0000 	   18.7187 
    2.7085 	   14.0120 	    3.0000 	   26.0000 	   18.7457 
    2.5864 	   14.0680 	    3.0000 	   26.0000 	   18.7737 
    2.7237 	   14.1260 	    3.0000 	   26.0000 	   18.8027 
    2.5864 	   14.1780 	    3.0000 	   26.0000 	   18.8287 
    2.6932 	   14.2320 	    3.0000 	   26.0000 	   18.8557 
    2.5864 	   14.2820 	    3.0000 	   26.0000 	   18.8807 
    2.6322 	   14.3400 	    3.0000 	   26.0000 	   18.9097 
    2.4796 	   14.3960 	    3.0000 	   26.0000 	   18.9377 
    2.5711 	   14.4440 	    3.0000 	   26.0000 	   18.9617 
    2.6932 	   14.4960 	    3.0000 	   26.0000 	   18.9877 
    2.6627 	   14.5460 	    3.0000 	   26.0000 	   19.0127 
    2.8153 	   14.5980 	    3.0000 	   26.0000 	   19.0387 
    2.8000 	   14.6560 	    3.0000 	   26.0000 	   19.0677 
    2.8153 	   14.7240 	    3.0000 	   26.0000 	   19.1017 
    2.7848 	   14.7740 	    3.0000 	   26.0000 	   19.1267 
    2.7695 	   14.8260 	    3.0000 	   26.0000 	   19.1527 
    2.8305 	   14.8840 	    3.0000 	   26.0000 	   19.1817 
    2.5864 	   14.9400 	    3.0000 	   26.0000 	   19.2097 
    2.6780 	   14.9920 	    3.0000 	   26.0000 	   19.2357 
    2.5101 	   15.0440 	    3.0000 	   26.0000 	   19.2617 
    2.7085 	   15.0960 	    3.0000 	   26.0000 	   19.2877 
    2.7390 	   15.1560 	    3.0000 	   26.0000 	   19.3177 
    2.5711 	   15.2060 	    3.0000 	   26.0000 	   19.3427 
    2.9526 	   15.2560 	    3.0000 	   26.0000 	   19.3677 
    2.6780 	   15.3160 	    3.0000 	   26.0000 	   19.3977 
    2.8611 	   15.3840 	    3.0000 	   26.0000 	   19.4317 
    2.6322 	   15.4440 	    3.0000 	   26.0000 	   19.4617 
    2.8458 	   15.5060 	    3.0000 	   26.0000 	   19.4927 
    2.9221 	   15.5760 	    3.0000 	   26.0000 	   19.5278 
    2.8000 	   15.6400 	    3.0000 	   26.0000 	   19.5598 
    2.8458 	   15.7000 	    3.0000 	   26.0000 	   19.5898 
    2.8458 	   15.7680 	    3.0000 	   26.0000 	   19.6238 
    2.9221 	   15.8220 	    3.0000 	   26.0000 	   19.6508 
    3.0594 	   15.8840 	    3.0000 	   26.0000 	   19.6818 
    2.8000 	   15.9520 	    3.0000 	   26.0000 	   19.7158 
    2.9374 	   16.0120 	    3.0000 	   26.0000 	   19.7458 
    2.7390 	   16.0660 	    3.0000 	   26.0000 	   19.7728 
    2.8458 	   16.1260 	    3.0000 	   26.0000 	   19.8028 
    2.9068 	   16.1760 	    3.0000 	   26.0000 	   19.8278 
    2.9221 	   16.2300 	    3.0000 	   26.0000 	   19.8548 
    3.0442 	   16.2820 	    3.0000 	   26.0000 	   19.8798 
    3.0137 	   16.3420 	    3.0000 	   26.0000 	   19.9108 
    2.8611 	   16.3940 	    3.0000 	   26.0000 	   19.9368 
    2.8458 	   16.4440 	    3.0000 	   26.0000 	   19.9618 
    2.9221 	   16.4940 	    3.0000 	   26.0000 	   19.9868 
    2.9068 	   16.5540 	    3.0000 	   26.0000 	   20.0168 
    3.0594 	   16.6100 	    3.0000 	   26.0000 	   20.0448 
    2.9679 	   16.6660 	    3.0000 	   26.0000 	   20.0728 
    2.9679 	   16.7260 	    3.0000 	   26.0000 	   20.1028 
    3.0289 	   16.7800 	    3.0000 	   26.0000 	   20.1298 
    2.8611 	   16.8340 	    3.0000 	   26.0000 	   20.1568 
    3.1052 	   16.8860 	    3.0000 	   26.0000 	   20.1828 
    2.9526 	   16.9440 	    3.0000 	   26.0000 	   20.2118 
    3.1205 	   17.0020 	    3.0000 	   26.0000 	   20.2408 
    2.8305 	   17.0540 	    3.0000 	   26.0000 	   20.2668 
    2.9984 	   17.1180 	    3.0000 	   26.0000 	   20.2988 
    2.9374 	   17.1780 	    3.0000 	   26.0000 	   20.3288 
    3.1968 	   17.2400 	    3.0000 	   26.0000 	   20.3598 
    2.9831 	   17.3020 	    3.0000 	   26.0000 	   20.3908 
    3.0137 	   17.3600 	    3.0000 	   26.0000 	   20.4198 
    3.1815 	   17.4280 	    3.0000 	   26.0000 	   20.4538 
    2.7237 	   17.4880 	    3.0000 	   26.0000 	   20.4838 
    3.0747 	   17.5440 	    3.0000 	   26.0000 	   20.5118 
    3.1662 	   17.6100 	    3.0000 	   26.0000 	   20.5448 
    2.9679 	   17.6800 	    3.0000 	   26.0000 	   20.5798 
    3.0137 	   17.7400 	    3.0000 	   26.0000 	   20.6098 
    2.7543 	   17.8040 	    3.0000 	   26.0000 	   20.6418 
    3.0289 	   17.8600 	    3.0000 	   26.0000 	   20.6698 
    3.2273 	   17.9240 	    3.0000 	   26.0000 	   20.7018 
    3.0594 	   17.9820 	    3.0000 	   26.0000 	   20.7308 
    3.0594 	   18.0460 	    3.0000 	   26.0000 	   20.7628 
    3.1205 	   18.1040 	    3.0000 	   26.0000 	   20.7918 
    3.0747 	   18.1700 	    3.0000 	   26.0000 	   20.8248 
    3.0747 	   18.2220 	    3.0000 	   26.0000 	   20.8508 
    3.1815 	   18.2780 	    3.0000 	   26.0000 	   20.8788 
    3.0594 	   18.3300 	    3.0000 	   26.0000 	   20.9048 
    3.0900 	   18.3940 	    3.0000 	   26.0000 	   20.9368 
    3.1205 	   18.4460 	    3.0000 	   26.0000 	   20.9628 
    3.2273 	   18.4960 	    3.0000 	   26.0000 	   20.9878 
    3.2120 	   18.5460 	    3.0000 	   26.0000 	   21.0128 
    3.0289 	   18.5980 	    3.0000 	   26.0000 	   21.0388 
    3.0900 	   18.6620 	    3.0000 	   26.0000 	   21.0708 
    3.2120 	   18.7240 	    3.0000 	   26.0000 	   21.1018 
    3.2120 	   18.7820 	    3.0000 	   26.0000 	   21.1308 
    3.3799 	   18.8360 	    3.0000 	   26.0000 	   21.1578 
    3.1205 	   18.8960 	    3.0000 	   26.0000 	   21.1878 
    3.2425 	   18.9540 	    3.0000 	   26.0000 	   21.2168 
    3.2120 	   19.0120 	    3.0000 	   26.0000 	   21.2458 
    3.2425 	   19.0740 	    3.0000 	   26.0000 	   21.2768 
    3.3036 	   19.1420 	    3.0000 	   26.0000 	   21.3109 
    3.2425 	   19.2040 	    3.0000 	   26.0000 	   21.3419 
    3.3341 	   19.2600 	    3.0000 	   26.0000 	   21.3699 
    3.3799 	   19.3200 	    3.0000 	   26.0000 	   21.3999 
    3.2120 	   19.3920 	    3.0000 	   26.0000 	   21.4359 
    2.9831 	   19.4520 	    3.0000 	   26.0000 	   21.4659 
    3.2578 	   19.5160 	    3.0000 	   26.0000 	   21.4969 
    3.1510 	   19.5740 	    3.0000 	   26.0000 	   21.5269 
    3.2883 	   19.6440 	    3.0000 	   26.0000 	   21.5619 
    3.1815 	   19.7100 	    3.0000 	   26.0000 	   21.5949 
    3.3036 	   19.7760 	    3.0000 	   26.0000 	   21.6279 
    3.1968 	   19.8420 	    3.0000 	   26.0000 	   21.6609 
    3.2273 	   19.9040 	    3.0000 	   26.0000 	   21.6919 
    3.1815 	   19.9620 	    3.0000 	   26.0000 	   21.7209 
    3.2273 	   20.0220 	    3.0000 	   26.0000 	   21.7509 
    3.2120 	   20.0820 	    3.0000 	   26.0000 	   21.7809 
    3.2273 	   20.1440 	    3.0000 	   26.0000 	   21.8119 
    3.3646 	   20.2000 	    3.0000 	   26.0000 	   21.8399 
    3.2425 	   20.2580 	    3.0000 	   26.0000 	   21.8689 
    3.3646 	   20.3160 	    3.0000 	   26.0000 	   21.8979 
    3.2425 	   20.3740 	    3.0000 	   26.0000 	   21.9269 
    3.4257 	   20.4320 	    3.0000 	   26.0000 	   21.9559 
    3.2578 	   20.4840 	    3.0000 	   26.0000 	   21.9819 
    3.3799 	   20.5500 	    3.0000 	   26.0000 	   22.0149 
    3.3799 	   20.6120 	    3.0000 	   26.0000 	   22.0459 
    3.4104 	   20.6820 	    3.0000 	   26.0000 	   22.0809 
    3.2578 	   20.7400 	    3.0000 	   26.0000 	   22.1099 
    3.5019 	   20.8040 	    3.0000 	   26.0000 	   22.1419 
    3.5325 	   20.8660 	    3.0000 	   26.0000 	   22.1729 
    3.4257 	   20.9880 	    3.0000 	   26.0000 	   22.2339 
    3.5630 	   21.0500 	    3.0000 	   26.0000 	   22.2649 
    3.4104 	   21.1160 	    3.0000 	   26.0000 	   22.2979 
    3.5172 	   21.1860 	    3.0000 	   26.0000 	   22.3329 
    3.3494 	   21.2540 	    3.0000 	   26.0000 	   22.3669 
    3.5325 	   21.3160 	    3.0000 	   26.0000 	   22.3979 
    3.4562 	   21.3840 	    3.0000 	   26.0000 	   22.4319 
    3.3494 	   21.4480 	    3.0000 	   26.0000 	   22.4639 
    3.4867 	   21.5080 	    3.0000 	   26.0000 	   22.4939 
    3.6851 	   21.5700 	    3.0000 	   26.0000 	   22.5249 
    3.4562 	   21.6400 	    3.0000 	   26.0000 	   22.5599 
    3.5019 	   21.7080 	    3.0000 	   26.0000 	   22.5939 
    3.5782 	   21.7780 	    3.0000 	   26.0000 	   22.6289 
    3.5325 	   21.8400 	    3.0000 	   26.0000 	   22.6599 
    3.4867 	   21.8980 	    3.0000 	   26.0000 	   22.6889 
    3.5172 	   21.9600 	    3.0000 	   26.0000 	   22.7199 
    3.5782 	   22.0200 	    3.0000 	   26.0000 	   22.7499 
    3.5782 	   22.0740 	    3.0000 	   26.0000 	   22.7769 
    3.2578 	   22.1400 	    3.0000 	   26.0000 	   22.8099 
    3.6851 	   22.1940 	    3.0000 	   26.0000 	   22.8369 
    3.5935 	   22.2460 	    3.0000 	   26.0000 	   22.8629 
    3.6851 	   22.3000 	    3.0000 	   26.0000 	   22.8899 
    3.5935 	   22.3560 	    3.0000 	   26.0000 	   22.9179 
    3.6088 	   22.4100 	    3.0000 	   26.0000 	   22.9449 
    3.5477 	   22.4620 	    3.0000 	   26.0000 	   22.9709 
    3.7308 	   22.5140 	    3.0000 	   26.0000 	   22.9969 
    3.5172 	   22.5660 	    3.0000 	   26.0000 	   23.0229 
    3.6545 	   22.6880 	    3.0000 	   26.0000 	   23.0840 
    3.6851 	   22.7480 	    3.0000 	   26.0000 	   23.1140 
    3.7003 	   22.8100 	    3.0000 	   26.0000 	   23.1450 
    3.7766 	   22.8720 	    3.0000 	   26.0000 	   23.1760 
    3.5935 	   22.9360 	    3.0000 	   26.0000 	   23.2080 
    3.7156 	   22.9980 	    3.0000 	   26.0000 	   23.2390 
    3.6851 	   23.0600 	    3.0000 	   26.0000 	   23.2700 
    3.3494 	   23.1220 	    3.0000 	   26.0000 	   23.3010 
    3.5935 	   23.1920 	    3.0000 	   26.0000 	   23.3360 
    3.5172 	   23.2520 	    3.0000 	   26.0000 	   23.3660 
    3.6088 	   23.3160 	    3.0000 	   26.0000 	   23.3980 
    3.5477 	   23.3780 	    3.0000 	   26.0000 	   23.4290 
    3.5782 	   23.4400 	    3.0000 	   26.0000 	   23.4600 
    3.5172 	   23.5060 	    3.0000 	   26.0000 	   23.4930 
    3.8224 	   23.5700 	    3.0000 	   26.0000 	   23.5250 
    3.6393 	   23.6420 	    3.0000 	   26.0000 	   23.5610 
    3.7919 	   23.7080 	    3.0000 	   26.0000 	   23.5940 
    3.7461 	   23.7720 	    3.0000 	   26.0000 	   23.6260 
    3.5630 	   23.8360 	    3.0000 	   26.0000 	   23.6580 
    3.7461 	   23.8980 	    3.0000 	   26.0000 	   23.6890 
    3.8529 	   23.9620 	    3.0000 	   26.0000 	   23.7210 
    3.7156 	   24.0220 	    3.0000 	   26.0000 	   23.7510 
    3.8071 	   24.0760 	    3.0000 	   26.0000 	   23.7780 
    3.6698 	   24.1400 	    3.0000 	   26.0000 	   23.8100 
    3.7613 	   24.1980 	    3.0000 	   26.0000 	   23.8390 
    3.7308 	   24.2500 	    3.0000 	   26.0000 	   23.8650 
    3.8376 	   24.3040 	    3.0000 	   26.0000 	   23.8920 
    3.8529 	   24.3580 	    3.0000 	   26.0000 	   23.9190 
    3.8376 	   24.4120 	    3.0000 	   26.0000 	   23.9460 
    3.8224 	   24.4660 	    3.0000 	   26.0000 	   23.9730 
    3.8529 	   24.5160 	    3.0000 	   26.0000 	   23.9980 
    3.7919 	   24.5700 	    3.0000 	   26.0000 	   24.0250 
    3.7156 	   24.6380 	    3.0000 	   26.0000 	   24.0590 
    3.8834 	   24.7020 	    3.0000 	   26.0000 	   24.0910 
    3.8376 	   24.7600 	    3.0000 	   26.0000 	   24.1200 
    3.8224 	   24.8160 	    3.0000 	   26.0000 	   24.1480 
    3.7613 	   24.8720 	    3.0000 	   26.0000 	   24.1760 
    3.8071 	   24.9400 	    3.0000 	   26.0000 	   24.2100 
    3.8529 	   25.0040 	    3.0000 	   26.0000 	   24.2420 
    3.8529 	   25.0660 	    3.0000 	   26.0000 	   24.2730 
    3.9750 	   25.1360 	    3.0000 	   26.0000 	   24.3080 
    3.9902 	   25.1960 	    3.0000 	   26.0000 	   24.3380 
    3.8224 	   25.2600 	    3.0000 	   26.0000 	   24.3700 
    3.7613 	   25.3260 	    3.0000 	   26.0000 	   24.4030 
    3.9597 	   25.3860 	    3.0000 	   26.0000 	   24.4330 
    3.8834 	   25.4480 	    3.0000 	   26.0000 	   24.4640 
    3.8987 	   25.5120 	    3.0000 	   26.0000 	   24.4960 
    3.8682 	   25.5760 	    3.0000 	   26.0000 	   24.5280 
    3.8987 	   25.6460 	    3.0000 	   26.0000 	   24.5630 
    3.8834 	   25.7040 	    3.0000 	   26.0000 	   24.5920 
    3.9139 	   25.7620 	    3.0000 	   26.0000 	   24.6210 
    3.9597 	   25.8220 	    3.0000 	   26.0000 	   24.6510 
    4.0360 	   25.8840 	    3.0000 	   26.0000 	   24.6820 
    3.8987 	   25.9460 	    3.0000 	   26.0000 	   24.7130 
    3.9750 	   26.0260 	    3.0000 	   26.0000 	   24.7530 
    4.1123 	   26.0860 	    3.0000 	   26.0000 	   24.7831 
    3.9139 	   26.1500 	    3.0000 	   26.0000 	   24.8151 
    3.8834 	   26.2160 	    3.0000 	   26.0000 	   24.8481 
    4.0970 	   26.2700 	    3.0000 	   26.0000 	   24.8751 
    4.0208 	   26.3260 	    3.0000 	   26.0000 	   24.9031 
    4.0513 	   26.3800 	    3.0000 	   26.0000 	   24.9301 
    4.1123 	   26.4360 	    3.0000 	   26.0000 	   24.9581 
    3.9445 	   26.4900 	    3.0000 	   26.0000 	   24.9851 
    4.0208 	   26.5460 	    3.0000 	   26.0000 	   25.0131 
    3.8834 	   26.6060 	    3.0000 	   26.0000 	   25.0431 
    4.0513 	   26.6780 	    3.0000 	   26.0000 	   25.0791 
    4.0665 	   26.7420 	    3.0000 	   26.0000 	   25.1111 
    4.1276 	   26.8080 	    3.0000 	   26.0000 	   25.1441 
    3.9139 	   26.8700 	    3.0000 	   26.0000 	   25.1751 
    4.0818 	   26.9340 	    3.0000 	   26.0000 	   25.2071 
    4.0513 	   26.9960 	    3.0000 	   26.0000 	   25.2381 
    4.3107 	   27.0580 	    3.0000 	   26.0000 	   25.2691 
    4.1733 	   27.1220 	    3.0000 	   26.0000 	   25.3011 
    4.2802 	   27.2420 	    3.0000 	   26.0000 	   25.3611 
    4.0055 	   27.3020 	    3.0000 	   26.0000 	   25.3911 
    3.9597 	   27.3620 	    3.0000 	   26.0000 	   25.4211 
    4.0208 	   27.4240 	    3.0000 	   26.0000 	   25.4521 
    4.2649 	   27.4860 	    3.0000 	   26.0000 	   25.4831 
    4.2344 	   27.5480 	    3.0000 	   26.0000 	   25.5141 
    4.2191 	   27.6140 	    3.0000 	   26.0000 	   25.5471 
    4.1428 	   27.6860 	    3.0000 	   26.0000 	   25.5831 
    4.1428 	   27.7460 	    3.0000 	   26.0000 	   25.6131 
    4.0970 	   27.8080 	    3.0000 	   26.0000 	   25.6441 
    4.1276 	   27.8740 	    3.0000 	   26.0000 	   25.6771 
    4.3107 	   27.9340 	    3.0000 	   26.0000 	   25.7071 
    4.0208 	   27.9920 	    3.0000 	   26.0000 	   25.7361 
    4.2039 	   28.0500 	    3.0000 	   26.0000 	   25.7651 
    4.1886 	   28.1100 	    3.0000 	   26.0000 	   25.7951 
    4.0208 	   28.1720 	    3.0000 	   26.0000 	   25.8261 
    4.2802 	   28.2280 	    3.0000 	   26.0000 	   25.8541 
    4.2496 	   28.2860 	    3.0000 	   26.0000 	   25.8831 
    4.2496 	   28.3400 	    3.0000 	   26.0000 	   25.9101 
    4.1886 	   28.3940 	    3.0000 	   26.0000 	   25.9371 
    4.1581 	   28.4480 	    3.0000 	   26.0000 	   25.9641 
    4.2802 	   28.5020 	    3.0000 	   26.0000 	   25.9911 
    4.2496 	   28.5520 	    3.0000 	   26.0000 	   26.0161 
    4.5090 	   28.6120 	    3.0000 	   26.0000 	   26.0461 
    4.4327 	   28.6660 	    3.0000 	   26.0000 	   26.0731 
    4.3412 	   28.7260 	    3.0000 	   26.0000 	   26.1031 
    4.4327 	   28.7860 	    3.0000 	   26.0000 	   26.1331 
    4.4175 	   28.8540 	    3.0000 	   26.0000 	   26.1671 
    4.2649 	   28.9140 	    3.0000 	   26.0000 	   26.1971 
    4.3412 	   28.9760 	    3.0000 	   26.0000 	   26.2281 
    3.9292 	   29.0400 	    3.0000 	   26.0000 	   26.2591 
    4.3412 	   29.1000 	    3.0000 	   26.0000 	   26.2901 
    4.2802 	   29.1680 	    3.0000 	   26.0000 	   26.3241 
    4.3412 	   29.2280 	    3.0000 	   26.0000 	   26.3541 
    4.2344 	   29.2920 	    3.0000 	   26.0000 	   26.3861 
    4.4785 	   29.3520 	    3.0000 	   26.0000 	   26.4161 
    4.5853 	   29.4180 	    3.0000 	   26.0000 	   26.4491 
    4.4175 	   29.4800 	    3.0000 	   26.0000 	   26.4801 
    4.3107 	   29.5400 	    3.0000 	   26.0000 	   26.5101 
    4.4022 	   29.6080 	    3.0000 	   26.0000 	   26.5442 
    4.3107 	   29.6840 	    3.0000 	   26.0000 	   26.5822 
    4.2954 	   29.7480 	    3.0000 	   26.0000 	   26.6142 
    4.5243 	   29.8080 	    3.0000 	   26.0000 	   26.6442 
    4.4327 	   29.8740 	    3.0000 	   26.0000 	   26.6772 
    4.6006 	   29.9380 	    3.0000 	   26.0000 	   26.7092 
    4.3107 	   30.0000 	    3.0000 	   26.0000 	   26.7402 
    4.2191 	   30.0640 	    3.0000 	   26.0000 	   26.7712 
    4.2039 	   30.1280 	    3.0000 	   26.0000 	   26.8032 
    4.4938 	   30.1860 	    3.0000 	   26.0000 	   26.8322 
    4.1276 	   30.2440 	    3.0000 	   26.0000 	   26.8612 
    4.4175 	   30.3020 	    3.0000 	   26.0000 	   26.8902 
    4.0818 	   30.3580 	    3.0000 	   26.0000 	   26.9182 
    4.5701 	   30.4140 	    3.0000 	   26.0000 	   26.9462 
    4.5548 	   30.4720 	    3.0000 	   26.0000 	   26.9752 
    4.5548 	   30.5260 	    3.0000 	   26.0000 	   27.0022 
    4.5243 	   30.5840 	    3.0000 	   26.0000 	   27.0312 
    4.5243 	   30.6600 	    3.0000 	   26.0000 	   27.0692 
    4.5090 	   30.7240 	    3.0000 	   26.0000 	   27.1012 
    4.5548 	   30.7860 	    3.0000 	   26.0000 	   27.1322 
    4.6006 	   30.8500 	    3.0000 	   26.0000 	   27.1642 
    4.5701 	   30.9180 	    3.0000 	   26.0000 	   27.1982 
    4.5548 	   30.9760 	    3.0000 	   26.0000 	   27.2272 
    4.6311 	   31.0420 	    3.0000 	   26.0000 	   27.2602 
    4.4938 	   31.1080 	    3.0000 	   26.0000 	   27.2932 
    4.7074 	   31.1780 	    3.0000 	   26.0000 	   27.3282 
    4.7074 	   31.2460 	    3.0000 	   26.0000 	   27.3622 
    4.7532 	   31.3140 	    3.0000 	   26.0000 	   27.3962 
    4.6464 	   31.3800 	    3.0000 	   26.0000 	   27.4292 
    4.4480 	   31.4440 	    3.0000 	   26.0000 	   27.4612 
    4.6464 	   31.5100 	    3.0000 	   26.0000 	   27.4942 
    4.6769 	   31.5740 	    3.0000 	   26.0000 	   27.5262 
    4.6159 	   31.6460 	    3.0000 	   26.0000 	   27.5622 
    4.6921 	   31.7120 	    3.0000 	   26.0000 	   27.5952 
    4.8142 	   31.7780 	    3.0000 	   26.0000 	   27.6282 
    4.7074 	   31.8420 	    3.0000 	   26.0000 	   27.6602 
    4.6464 	   31.9120 	    3.0000 	   26.0000 	   27.6952 
    4.6464 	   31.9760 	    3.0000 	   26.0000 	   27.7272 
    4.6464 	   32.0420 	    3.0000 	   26.0000 	   27.7602 
    4.7684 	   32.1040 	    3.0000 	   26.0000 	   27.7912 
    4.6159 	   32.1660 	    3.0000 	   26.0000 	   27.8222 
    4.7074 	   32.2220 	    3.0000 	   26.0000 	   27.8502 
    4.7684 	   32.2780 	    3.0000 	   26.0000 	   27.8782 
    4.6311 	   32.3340 	    3.0000 	   26.0000 	   27.9062 
    4.7379 	   32.3900 	    3.0000 	   26.0000 	   27.9342 
    4.7227 	   32.4420 	    3.0000 	   26.0000 	   27.9602 
    4.8600 	   32.4960 	    3.0000 	   26.0000 	   27.9872 
    4.7990 	   32.5500 	    3.0000 	   26.0000 	   28.0142 
    4.6921 	   32.6060 	    3.0000 	   26.0000 	   28.0422 
    4.6921 	   32.6760 	    3.0000 	   26.0000 	   28.0772 
    4.5548 	   32.7380 	    3.0000 	   26.0000 	   28.1082 
    4.7837 	   32.8020 	    3.0000 	   26.0000 	   28.1402 
    4.7532 	   32.8660 	    3.0000 	   26.0000 	   28.1722 
    4.8447 	   32.9260 	    3.0000 	   26.0000 	   28.2022 
    4.7990 	   32.9860 	    3.0000 	   26.0000 	   28.2322 
    4.9058 	   33.0440 	    3.0000 	   26.0000 	   28.2612 
    4.7074 	   33.1060 	    3.0000 	   26.0000 	   28.2923 
    4.8447 	   33.2360 	    3.0000 	   26.0000 	   28.3573 
    4.8905 	   33.2940 	    3.0000 	   26.0000 	   28.3863 
    4.8600 	   33.3580 	    3.0000 	   26.0000 	   28.4183 
    4.8905 	   33.4220 	    3.0000 	   26.0000 	   28.4503 
    4.9363 	   33.4840 	    3.0000 	   26.0000 	   28.4813 
    4.8600 	   33.5440 	    3.0000 	   26.0000 	   28.5113 
    4.8295 	   33.6100 	    3.0000 	   26.0000 	   28.5443 
    4.9821 	   33.6760 	    3.0000 	   26.0000 	   28.5773 
    4.9210 	   33.7400 	    3.0000 	   26.0000 	   28.6093 
    4.8753 	   33.8040 	    3.0000 	   26.0000 	   28.6413 
    5.1347 	   33.8680 	    3.0000 	   26.0000 	   28.6733 
    4.9668 	   33.9240 	    3.0000 	   26.0000 	   28.7013 
    4.8295 	   33.9960 	    3.0000 	   26.0000 	   28.7373 
    4.8905 	   34.0580 	    3.0000 	   26.0000 	   28.7683 
    5.0584 	   34.1160 	    3.0000 	   26.0000 	   28.7973 
    5.0584 	   34.1820 	    3.0000 	   26.0000 	   28.8303 
    4.9973 	   34.2420 	    3.0000 	   26.0000 	   28.8603 
    4.9668 	   34.2960 	    3.0000 	   26.0000 	   28.8873 
    4.9363 	   34.3520 	    3.0000 	   26.0000 	   28.9153 
    5.0736 	   34.4080 	    3.0000 	   26.0000 	   28.9433 
    4.9821 	   34.4620 	    3.0000 	   26.0000 	   28.9703 
    5.0889 	   34.5180 	    3.0000 	   26.0000 	   28.9983 
    5.0584 	   34.5700 	    3.0000 	   26.0000 	   29.0243 
    5.0278 	   34.6240 	    3.0000 	   26.0000 	   29.0513 
    4.9821 	   34.6840 	    3.0000 	   26.0000 	   29.0813 
    4.9668 	   34.7460 	    3.0000 	   26.0000 	   29.1123 
    5.0736 	   34.8100 	    3.0000 	   26.0000 	   29.1443 
    4.9516 	   34.8740 	    3.0000 	   26.0000 	   29.1763 
    4.9821 	   34.9360 	    3.0000 	   26.0000 	   29.2073 
    5.0584 	   34.9980 	    3.0000 	   26.0000 	   29.2383 
    5.0278 	   35.0620 	    3.0000 	   26.0000 	   29.2703 
    4.7227 	   35.1280 	    3.0000 	   26.0000 	   29.3033 
    5.0889 	   35.2020 	    3.0000 	   26.0000 	   29.3403 
    5.1499 	   35.2640 	    3.0000 	   26.0000 	   29.3713 
    5.2262 	   35.3260 	    3.0000 	   26.0000 	   29.4023 
    5.1347 	   35.3860 	    3.0000 	   26.0000 	   29.4323 
    5.0431 	   35.4580 	    3.0000 	   26.0000 	   29.4683 
    4.8600 	   35.5200 	    3.0000 	   26.0000 	   29.4993 
    5.1652 	   35.5840 	    3.0000 	   26.0000 	   29.5313 
    5.1347 	   35.6480 	    3.0000 	   26.0000 	   29.5633 
    5.2262 	   35.7120 	    3.0000 	   26.0000 	   29.5953 
    5.0889 	   35.7760 	    3.0000 	   26.0000 	   29.6273 
    5.1194 	   35.8380 	    3.0000 	   26.0000 	   29.6583 
    5.2110 	   35.9020 	    3.0000 	   26.0000 	   29.6903 
    5.3788 	   35.9640 	    3.0000 	   26.0000 	   29.7213 
    5.1652 	   36.0280 	    3.0000 	   26.0000 	   29.7533 
    5.1652 	   36.0980 	    3.0000 	   26.0000 	   29.7883 
    5.2262 	   36.1620 	    3.0000 	   26.0000 	   29.8203 
    5.2720 	   36.2180 	    3.0000 	   26.0000 	   29.8483 
    4.9516 	   36.2740 	    3.0000 	   26.0000 	   29.8763 
    5.1652 	   36.3300 	    3.0000 	   26.0000 	   29.9043 
    5.1804 	   36.3860 	    3.0000 	   26.0000 	   29.9323 
    5.2873 	   36.4420 	    3.0000 	   26.0000 	   29.9603 
    5.2262 	   36.4960 	    3.0000 	   26.0000 	   29.9873 
    5.1347 	   36.5500 	    3.0000 	   26.0000 	   30.0143 
    5.2873 	   36.6040 	    3.0000 	   26.0000 	   30.0414 
    5.1652 	   36.6620 	    3.0000 	   26.0000 	   30.0704 
    5.3025 	   36.7260 	    3.0000 	   26.0000 	   30.1024 
    5.3483 	   36.7900 	    3.0000 	   26.0000 	   30.1344 
    5.2720 	   36.8540 	    3.0000 	   26.0000 	   30.1664 
    5.2720 	   36.9200 	    3.0000 	   26.0000 	   30.1994 
    5.4398 	   36.9860 	    3.0000 	   26.0000 	   30.2324 
    5.3025 	   37.0520 	    3.0000 	   26.0000 	   30.2654 
    5.4551 	   37.1200 	    3.0000 	   26.0000 	   30.2994 
    5.3788 	   37.1920 	    3.0000 	   26.0000 	   30.3354 
    5.3483 	   37.2540 	    3.0000 	   26.0000 	   30.3664 
    5.4551 	   37.3200 	    3.0000 	   26.0000 	   30.3994 
    5.4551 	   37.3840 	    3.0000 	   26.0000 	   30.4314 
    5.4398 	   37.4500 	    3.0000 	   26.0000 	   30.4644 
    5.5619 	   37.5160 	    3.0000 	   26.0000 	   30.4974 
    5.3941 	   37.5800 	    3.0000 	   26.0000 	   30.5294 
    5.4246 	   37.6520 	    3.0000 	   26.0000 	   30.5654 
    5.5161 	   37.7200 	    3.0000 	   26.0000 	   30.5994 
    5.3941 	   37.7820 	    3.0000 	   26.0000 	   30.6304 
    5.3635 	   37.8440 	    3.0000 	   26.0000 	   30.6614 
    5.5314 	   37.9080 	    3.0000 	   26.0000 	   30.6934 
    5.5772 	   37.9700 	    3.0000 	   26.0000 	   30.7244 
    5.5161 	   38.0300 	    3.0000 	   26.0000 	   30.7544 
    5.5009 	   38.0920 	    3.0000 	   26.0000 	   30.7854 
    5.4246 	   38.1560 	    3.0000 	   26.0000 	   30.8174 
    5.5009 	   38.2240 	    3.0000 	   26.0000 	   30.8514 
    5.5924 	   38.2820 	    3.0000 	   26.0000 	   30.8804 
    5.5772 	   38.3380 	    3.0000 	   26.0000 	   30.9084 
    5.3178 	   38.3940 	    3.0000 	   26.0000 	   30.9364 
    5.4856 	   38.4500 	    3.0000 	   26.0000 	   30.9644 
    5.4246 	   38.5120 	    3.0000 	   26.0000 	   30.9954 
    5.6077 	   38.5640 	    3.0000 	   26.0000 	   31.0214 
    5.5924 	   38.6200 	    3.0000 	   26.0000 	   31.0494 
    5.5772 	   38.6840 	    3.0000 	   26.0000 	   31.0814 
    5.5772 	   38.7500 	    3.0000 	   26.0000 	   31.1144 
    5.5619 	   38.8160 	    3.0000 	   26.0000 	   31.1474 
    5.5467 	   38.8840 	    3.0000 	   26.0000 	   31.1814 
    5.5161 	   38.9500 	    3.0000 	   26.0000 	   31.2144 
    5.5924 	   39.0160 	    3.0000 	   26.0000 	   31.2474 
    5.8366 	   39.0800 	    3.0000 	   26.0000 	   31.2794 
    5.6077 	   39.1480 	    3.0000 	   26.0000 	   31.3134 
    5.8518 	   39.2200 	    3.0000 	   26.0000 	   31.3494 
    5.7298 	   39.2880 	    3.0000 	   26.0000 	   31.3834 
    5.7450 	   39.3520 	    3.0000 	   26.0000 	   31.4154 
    5.7603 	   39.4140 	    3.0000 	   26.0000 	   31.4464 
    5.5772 	   39.4820 	    3.0000 	   26.0000 	   31.4804 
    5.6229 	   39.5460 	    3.0000 	   26.0000 	   31.5124 
    5.8061 	   39.6080 	    3.0000 	   26.0000 	   31.5434 
    5.7450 	   39.6760 	    3.0000 	   26.0000 	   31.5774 
    5.8518 	   39.7440 	    3.0000 	   26.0000 	   31.6114 
    5.7450 	   39.8100 	    3.0000 	   26.0000 	   31.6444 
    5.6229 	   39.8740 	    3.0000 	   26.0000 	   31.6764 
    5.7755 	   39.9360 	    3.0000 	   26.0000 	   31.7074 
    5.8366 	   39.9980 	    3.0000 	   26.0000 	   31.7384 
    5.7450 	   40.0620 	    3.0000 	   26.0000 	   31.7705 
    5.7755 	   40.1240 	    3.0000 	   26.0000 	   31.8015 
    5.8061 	   40.1900 	    3.0000 	   26.0000 	   31.8345 
    5.7908 	   40.2580 	    3.0000 	   26.0000 	   31.8685 
    5.8213 	   40.3160 	    3.0000 	   26.0000 	   31.8975 
    5.8061 	   40.3760 	    3.0000 	   26.0000 	   31.9275 
    6.0197 	   40.4340 	    3.0000 	   26.0000 	   31.9565 
    5.8824 	   40.4900 	    3.0000 	   26.0000 	   31.9845 
    5.8213 	   40.5500 	    3.0000 	   26.0000 	   32.0145 
    6.0960 	   40.6040 	    3.0000 	   26.0000 	   32.0415 
    5.9129 	   40.6560 	    3.0000 	   26.0000 	   32.0675 
    6.0197 	   40.7160 	    3.0000 	   26.0000 	   32.0975 
    5.7145 	   40.7780 	    3.0000 	   26.0000 	   32.1285 
    5.9281 	   40.8480 	    3.0000 	   26.0000 	   32.1635 
    5.9129 	   40.9080 	    3.0000 	   26.0000 	   32.1935 
    5.9586 	   40.9740 	    3.0000 	   26.0000 	   32.2265 
    5.7450 	   41.0400 	    3.0000 	   26.0000 	   32.2595 
    5.9281 	   41.1080 	    3.0000 	   26.0000 	   32.2935 
    5.9739 	   41.1760 	    3.0000 	   26.0000 	   32.3275 
    6.0044 	   41.2460 	    3.0000 	   26.0000 	   32.3625 
    6.1418 	   41.3100 	    3.0000 	   26.0000 	   32.3945 
    6.0502 	   41.3760 	    3.0000 	   26.0000 	   32.4275 
    6.0349 	   41.4500 	    3.0000 	   26.0000 	   32.4645 
    5.9739 	   41.5180 	    3.0000 	   26.0000 	   32.4985 
    6.0044 	   41.5820 	    3.0000 	   26.0000 	   32.5305 
    6.0044 	   41.6440 	    3.0000 	   26.0000 	   32.5615 
    5.9739 	   41.7120 	    3.0000 	   26.0000 	   32.5955 
    6.0502 	   41.7760 	    3.0000 	   26.0000 	   32.6275 
    6.2486 	   41.8420 	    3.0000 	   26.0000 	   32.6605 
    6.1875 	   41.9120 	    3.0000 	   26.0000 	   32.6955 
    6.0197 	   41.9820 	    3.0000 	   26.0000 	   32.7305 
    6.1418 	   42.0460 	    3.0000 	   26.0000 	   32.7625 
    6.0960 	   42.1060 	    3.0000 	   26.0000 	   32.7925 
    6.0349 	   42.1780 	    3.0000 	   26.0000 	   32.8285 
    6.1570 	   42.2340 	    3.0000 	   26.0000 	   32.8565 
    6.0197 	   42.2920 	    3.0000 	   26.0000 	   32.8855 
    6.1418 	   42.3500 	    3.0000 	   26.0000 	   32.9145 
    6.1112 	   42.4120 	    3.0000 	   26.0000 	   32.9455 
    6.1418 	   42.4680 	    3.0000 	   26.0000 	   32.9735 
    6.1570 	   42.5260 	    3.0000 	   26.0000 	   33.0025 
    6.1875 	   42.5800 	    3.0000 	   26.0000 	   33.0295 
    6.2486 	   42.6340 	    3.0000 	   26.0000 	   33.0565 
    6.1723 	   42.6920 	    3.0000 	   26.0000 	   33.0855 
    6.2638 	   42.7500 	    3.0000 	   26.0000 	   33.1145 
    6.2333 	   42.8140 	    3.0000 	   26.0000 	   33.1465 
    6.1570 	   42.8800 	    3.0000 	   26.0000 	   33.1795 
    6.2638 	   42.9420 	    3.0000 	   26.0000 	   33.2105 
    6.3096 	   43.0080 	    3.0000 	   26.0000 	   33.2435 
    6.2791 	   43.0760 	    3.0000 	   26.0000 	   33.2775 
    6.3249 	   43.2120 	    3.0000 	   26.0000 	   33.3455 
    6.4012 	   43.2760 	    3.0000 	   26.0000 	   33.3775 
    6.2028 	   43.3440 	    3.0000 	   26.0000 	   33.4115 
    6.3249 	   43.4200 	    3.0000 	   26.0000 	   33.4495 
    6.2791 	   43.4860 	    3.0000 	   26.0000 	   33.4825 
    6.5080 	   43.5500 	    3.0000 	   26.0000 	   33.5145 
    6.2943 	   43.6120 	    3.0000 	   26.0000 	   33.5456 
    6.4012 	   43.6860 	    3.0000 	   26.0000 	   33.5826 
    6.1723 	   43.7540 	    3.0000 	   26.0000 	   33.6166 
    6.3554 	   43.8180 	    3.0000 	   26.0000 	   33.6486 
    6.3554 	   43.8820 	    3.0000 	   26.0000 	   33.6806 
    6.4469 	   43.9480 	    3.0000 	   26.0000 	   33.7136 
    6.3401 	   44.0100 	    3.0000 	   26.0000 	   33.7446 
    6.4927 	   44.0740 	    3.0000 	   26.0000 	   33.7766 
    6.4622 	   44.1480 	    3.0000 	   26.0000 	   33.8136 
    6.5995 	   44.2080 	    3.0000 	   26.0000 	   33.8436 
    6.3859 	   44.2700 	    3.0000 	   26.0000 	   33.8746 
    6.4622 	   44.3280 	    3.0000 	   26.0000 	   33.9036 
    6.5690 	   44.3880 	    3.0000 	   26.0000 	   33.9336 
    6.2638 	   44.4460 	    3.0000 	   26.0000 	   33.9626 
    6.5080 	   44.5040 	    3.0000 	   26.0000 	   33.9916 
    6.0655 	   44.5600 	    3.0000 	   26.0000 	   34.0196 
    6.5232 	   44.6120 	    3.0000 	   26.0000 	   34.0456 
    6.4927 	   44.6660 	    3.0000 	   26.0000 	   34.0726 
    6.5385 	   44.7260 	    3.0000 	   26.0000 	   34.1026 
    6.5690 	   44.7940 	    3.0000 	   26.0000 	   34.1366 
    6.5843 	   44.8580 	    3.0000 	   26.0000 	   34.1686 
    6.5843 	   44.9260 	    3.0000 	   26.0000 	   34.2026 
    6.6148 	   44.9860 	    3.0000 	   26.0000 	   34.2326 
    6.5995 	   45.0480 	    3.0000 	   26.0000 	   34.2636 
    6.6606 	   45.1180 	    3.0000 	   26.0000 	   34.2986 
    6.5385 	   45.1900 	    3.0000 	   26.0000 	   34.3346 
    6.7369 	   45.2540 	    3.0000 	   26.0000 	   34.3666 
    6.7521 	   45.3160 	    3.0000 	   26.0000 	   34.3976 
    6.7826 	   45.3880 	    3.0000 	   26.0000 	   34.4336 
    6.7063 	   45.4540 	    3.0000 	   26.0000 	   34.4666 
    6.7674 	   45.5160 	    3.0000 	   26.0000 	   34.4976 
    6.7216 	   45.5800 	    3.0000 	   26.0000 	   34.5296 
    6.6911 	   45.6440 	    3.0000 	   26.0000 	   34.5616 
    6.5843 	   45.7120 	    3.0000 	   26.0000 	   34.5956 
    6.8284 	   45.7760 	    3.0000 	   26.0000 	   34.6276 
    6.5995 	   45.8380 	    3.0000 	   26.0000 	   34.6586 
    6.4317 	   45.9160 	    3.0000 	   26.0000 	   34.6976 
    6.6758 	   45.9800 	    3.0000 	   26.0000 	   34.7296 
    6.6606 	   46.0400 	    3.0000 	   26.0000 	   34.7596 
    6.7674 	   46.1060 	    3.0000 	   26.0000 	   34.7926 
    6.8132 	   46.1720 	    3.0000 	   26.0000 	   34.8256 
    6.9047 	   46.2280 	    3.0000 	   26.0000 	   34.8536 
    6.9963 	   46.2840 	    3.0000 	   26.0000 	   34.8816 
    7.0115 	   46.3520 	    3.0000 	   26.0000 	   34.9156 
    6.6911 	   46.4140 	    3.0000 	   26.0000 	   34.9466 
    6.9657 	   46.4800 	    3.0000 	   26.0000 	   34.9796 
    7.1641 	   46.5380 	    3.0000 	   26.0000 	   35.0086 
    6.7979 	   46.5940 	    3.0000 	   26.0000 	   35.0366 
    6.7979 	   46.6560 	    3.0000 	   26.0000 	   35.0676 
    6.9505 	   46.7120 	    3.0000 	   26.0000 	   35.0956 
    6.9657 	   46.7760 	    3.0000 	   26.0000 	   35.1276 
    6.8894 	   46.8400 	    3.0000 	   26.0000 	   35.1596 
    7.1031 	   46.9080 	    3.0000 	   26.0000 	   35.1936 
    6.9810 	   46.9760 	    3.0000 	   26.0000 	   35.2276 
    7.0878 	   47.0420 	    3.0000 	   26.0000 	   35.2607 
    7.0115 	   47.1080 	    3.0000 	   26.0000 	   35.2937 
    6.9810 	   47.1860 	    3.0000 	   26.0000 	   35.3327 
    7.0268 	   47.2540 	    3.0000 	   26.0000 	   35.3667 
    7.0420 	   47.3200 	    3.0000 	   26.0000 	   35.3997 
    7.1336 	   47.3880 	    3.0000 	   26.0000 	   35.4337 
    7.1336 	   47.4500 	    3.0000 	   26.0000 	   35.4647 
    7.1946 	   47.5200 	    3.0000 	   26.0000 	   35.4997 
    6.9657 	   47.5880 	    3.0000 	   26.0000 	   35.5337 
    7.0878 	   47.6540 	    3.0000 	   26.0000 	   35.5667 
    7.0878 	   47.7200 	    3.0000 	   26.0000 	   35.5997 
    7.2099 	   47.7880 	    3.0000 	   26.0000 	   35.6337 
    7.1641 	   47.8540 	    3.0000 	   26.0000 	   35.6667 
    7.2251 	   47.9280 	    3.0000 	   26.0000 	   35.7027 
    7.2404 	   47.9940 	    3.0000 	   26.0000 	   35.7367 
    7.1946 	   48.0560 	    3.0000 	   26.0000 	   35.7677 
    7.2099 	   48.1240 	    3.0000 	   26.0000 	   35.8017 
    7.3320 	   48.1980 	    3.0000 	   26.0000 	   35.8387 
    7.2557 	   48.2540 	    3.0000 	   26.0000 	   35.8667 
    7.2251 	   48.3180 	    3.0000 	   26.0000 	   35.8987 
    7.1946 	   48.3780 	    3.0000 	   26.0000 	   35.9287 
    7.1641 	   48.4420 	    3.0000 	   26.0000 	   35.9607 
    7.2251 	   48.5000 	    3.0000 	   26.0000 	   35.9897 
    7.1336 	   48.5540 	    3.0000 	   26.0000 	   36.0167 
    7.3167 	   48.6080 	    3.0000 	   26.0000 	   36.0437 
    7.4388 	   48.6660 	    3.0000 	   26.0000 	   36.0727 
    7.3930 	   48.7260 	    3.0000 	   26.0000 	   36.1027 
    7.5303 	   48.8000 	    3.0000 	   26.0000 	   36.1397 
    7.4083 	   48.8680 	    3.0000 	   26.0000 	   36.1737 
    7.3014 	   48.9320 	    3.0000 	   26.0000 	   36.2057 
    7.3930 	   49.0000 	    3.0000 	   26.0000 	   36.2397 
    7.3777 	   49.0660 	    3.0000 	   26.0000 	   36.2727 
    7.4083 	   49.1380 	    3.0000 	   26.0000 	   36.3087 
    7.4388 	   49.2040 	    3.0000 	   26.0000 	   36.3417 
    7.4693 	   49.2700 	    3.0000 	   26.0000 	   36.3747 
    7.4388 	   49.3360 	    3.0000 	   26.0000 	   36.4077 
    7.5608 	   49.4020 	    3.0000 	   26.0000 	   36.4407 
    7.5914 	   49.4720 	    3.0000 	   26.0000 	   36.4757 
    7.5608 	   49.5380 	    3.0000 	   26.0000 	   36.5087 
    7.4083 	   49.6080 	    3.0000 	   26.0000 	   36.5437 
    7.5303 	   49.6800 	    3.0000 	   26.0000 	   36.5797 
    7.6829 	   49.7440 	    3.0000 	   26.0000 	   36.6117 
    7.7745 	   49.8060 	    3.0000 	   26.0000 	   36.6427 
    7.5456 	   49.8800 	    3.0000 	   26.0000 	   36.6797 
    7.2404 	   49.9420 	    3.0000 	   26.0000 	   36.7107 
    7.7592 	   50.0100 	    3.0000 	   26.0000 	   36.7447 
    7.6524 	   50.0800 	    3.0000 	   26.0000 	   36.7797 
    7.6677 	   50.1500 	    3.0000 	   26.0000 	   36.8147 
    7.5914 	   50.2100 	    3.0000 	   26.0000 	   36.8447 
    7.6677 	   50.2700 	    3.0000 	   26.0000 	   36.8747 
    7.6371 	   50.3300 	    3.0000 	   26.0000 	   36.9047 
    7.7592 	   50.3900 	    3.0000 	   26.0000 	   36.9347 
    7.7592 	   50.4500 	    3.0000 	   26.0000 	   36.9647 
    7.8965 	   50.5060 	    3.0000 	   26.0000 	   36.9927 
    7.9118 	   50.5640 	    3.0000 	   26.0000 	   37.0218 
    7.6829 	   50.6260 	    3.0000 	   26.0000 	   37.0528 
    7.8508 	   50.6820 	    3.0000 	   26.0000 	   37.0808 
    7.7897 	   50.7380 	    3.0000 	   26.0000 	   37.1088 
    7.8660 	   50.8020 	    3.0000 	   26.0000 	   37.1408 
    7.7897 	   50.8600 	    3.0000 	   26.0000 	   37.1698 
    7.7745 	   50.9200 	    3.0000 	   26.0000 	   37.1998 
    7.9271 	   50.9820 	    3.0000 	   26.0000 	   37.2308 
    7.8050 	   51.0480 	    3.0000 	   26.0000 	   37.2638 
    7.9271 	   51.1160 	    3.0000 	   26.0000 	   37.2978 
    8.1407 	   51.1860 	    3.0000 	   26.0000 	   37.3328 
    8.1254 	   51.2480 	    3.0000 	   26.0000 	   37.3638 
    7.9118 	   51.3200 	    3.0000 	   26.0000 	   37.3998 
    7.9881 	   51.3820 	    3.0000 	   26.0000 	   37.4308 
    8.0949 	   51.4400 	    3.0000 	   26.0000 	   37.4598 
    7.9423 	   51.4980 	    3.0000 	   26.0000 	   37.4888 
    8.0339 	   51.5560 	    3.0000 	   26.0000 	   37.5178 
    8.0186 	   51.6160 	    3.0000 	   26.0000 	   37.5478 
    8.0186 	   51.6820 	    3.0000 	   26.0000 	   37.5808 
    7.9881 	   51.7460 	    3.0000 	   26.0000 	   37.6128 
    8.1254 	   51.8100 	    3.0000 	   26.0000 	   37.6448 
    8.2933 	   51.8740 	    3.0000 	   26.0000 	   37.6768 
    8.1559 	   51.9400 	    3.0000 	   26.0000 	   37.7098 
    8.1559 	   52.0160 	    3.0000 	   26.0000 	   37.7478 
    8.0644 	   52.0780 	    3.0000 	   26.0000 	   37.7788 
    8.2933 	   52.1520 	    3.0000 	   26.0000 	   37.8158 
    8.1559 	   52.2100 	    3.0000 	   26.0000 	   37.8448 
    8.2628 	   52.2700 	    3.0000 	   26.0000 	   37.8748 
    8.1712 	   52.3320 	    3.0000 	   26.0000 	   37.9058 
    8.1712 	   52.3900 	    3.0000 	   26.0000 	   37.9348 
    8.2780 	   52.4480 	    3.0000 	   26.0000 	   37.9638 
    8.3085 	   52.5060 	    3.0000 	   26.0000 	   37.9928 
    8.3391 	   52.5660 	    3.0000 	   26.0000 	   38.0228 
    8.2170 	   52.6200 	    3.0000 	   26.0000 	   38.0498 
    8.1254 	   52.6760 	    3.0000 	   26.0000 	   38.0768 
    8.3238 	   52.7400 	    3.0000 	   26.0000 	   38.1098 
    8.3238 	   52.8040 	    3.0000 	   26.0000 	   38.1418 
    8.4459 	   52.8720 	    3.0000 	   26.0000 	   38.1758 
    8.3696 	   52.9400 	    3.0000 	   26.0000 	   38.2098 
    8.2933 	   53.0180 	    3.0000 	   26.0000 	   38.2488 
    8.3848 	   53.0860 	    3.0000 	   26.0000 	   38.2828 
    8.4459 	   53.1580 	    3.0000 	   26.0000 	   38.3188 
    8.4306 	   53.2240 	    3.0000 	   26.0000 	   38.3518 
    8.4764 	   53.2940 	    3.0000 	   26.0000 	   38.3868 
    8.4153 	   53.3580 	    3.0000 	   26.0000 	   38.4188 
    8.6137 	   53.4240 	    3.0000 	   26.0000 	   38.4518 
    8.4459 	   53.4900 	    3.0000 	   26.0000 	   38.4848 
    8.5679 	   53.5640 	    3.0000 	   26.0000 	   38.5218 
    8.2170 	   53.6280 	    3.0000 	   26.0000 	   38.5538 
    8.5527 	   53.6940 	    3.0000 	   26.0000 	   38.5868 
    8.5069 	   53.7600 	    3.0000 	   26.0000 	   38.6198 
    8.4153 	   53.8260 	    3.0000 	   26.0000 	   38.6528 
    8.5985 	   53.8880 	    3.0000 	   26.0000 	   38.6838 
    8.6900 	   53.9560 	    3.0000 	   26.0000 	   38.7178 
    8.7053 	   54.0220 	    3.0000 	   26.0000 	   38.7508 
    8.8273 	   54.0840 	    3.0000 	   26.0000 	   38.7819 
    8.8884 	   54.1560 	    3.0000 	   26.0000 	   38.8179 
    8.6900 	   54.2240 	    3.0000 	   26.0000 	   38.8519 
    8.4764 	   54.2860 	    3.0000 	   26.0000 	   38.8829 
    8.7968 	   54.3420 	    3.0000 	   26.0000 	   38.9109 
    8.5832 	   54.4020 	    3.0000 	   26.0000 	   38.9409 
    8.6748 	   54.4600 	    3.0000 	   26.0000 	   38.9699 
    8.7968 	   54.5180 	    3.0000 	   26.0000 	   38.9989 
    8.8426 	   54.5860 	    3.0000 	   26.0000 	   39.0329 
    8.9036 	   54.6400 	    3.0000 	   26.0000 	   39.0599 
    8.9342 	   54.6940 	    3.0000 	   26.0000 	   39.0869 
    8.8884 	   54.7520 	    3.0000 	   26.0000 	   39.1159 
    8.9189 	   54.8120 	    3.0000 	   26.0000 	   39.1459 
    8.8426 	   54.8780 	    3.0000 	   26.0000 	   39.1789 
    8.9342 	   54.9460 	    3.0000 	   26.0000 	   39.2119 
    8.9189 	   55.0140 	    3.0000 	   26.0000 	   39.2469 
    9.0562 	   55.0820 	    3.0000 	   26.0000 	   39.2809 
    8.9647 	   55.1520 	    3.0000 	   26.0000 	   39.3159 
    9.1325 	   55.2220 	    3.0000 	   26.0000 	   39.3509 
    9.0105 	   55.2840 	    3.0000 	   26.0000 	   39.3819 
    9.1325 	   55.3520 	    3.0000 	   26.0000 	   39.4159 
    9.1630 	   55.4160 	    3.0000 	   26.0000 	   39.4479 
    9.0867 	   55.4840 	    3.0000 	   26.0000 	   39.4819 
    9.1936 	   55.5520 	    3.0000 	   26.0000 	   39.5159 
    9.1020 	   55.6180 	    3.0000 	   26.0000 	   39.5489 
    9.1783 	   55.6820 	    3.0000 	   26.0000 	   39.5809 
    9.2699 	   55.7480 	    3.0000 	   26.0000 	   39.6139 
    9.1783 	   55.8120 	    3.0000 	   26.0000 	   39.6459 
    9.2241 	   55.8840 	    3.0000 	   26.0000 	   39.6819 
    9.4682 	   55.9480 	    3.0000 	   26.0000 	   39.7139 
    9.2699 	   56.0140 	    3.0000 	   26.0000 	   39.7469 
    9.1936 	   56.0880 	    3.0000 	   26.0000 	   39.7839 
    9.3004 	   56.1600 	    3.0000 	   26.0000 	   39.8199 
    9.3767 	   56.2280 	    3.0000 	   26.0000 	   39.8539 
    9.2851 	   56.2880 	    3.0000 	   26.0000 	   39.8839 
    9.3767 	   56.3460 	    3.0000 	   26.0000 	   39.9129 
    9.3767 	   56.4040 	    3.0000 	   26.0000 	   39.9419 
    9.3919 	   56.4640 	    3.0000 	   26.0000 	   39.9719 
    9.3767 	   56.5220 	    3.0000 	   26.0000 	   40.0009 
    9.5293 	   56.5880 	    3.0000 	   26.0000 	   40.0339 
    9.4072 	   56.6440 	    3.0000 	   26.0000 	   40.0619 
    9.5750 	   56.7000 	    3.0000 	   26.0000 	   40.0899 
    9.4835 	   56.7580 	    3.0000 	   26.0000 	   40.1189 
    9.5903 	   56.8160 	    3.0000 	   26.0000 	   40.1479 
    9.5750 	   56.8740 	    3.0000 	   26.0000 	   40.1769 
    9.3919 	   56.9400 	    3.0000 	   26.0000 	   40.2099 
    9.7276 	   57.0100 	    3.0000 	   26.0000 	   40.2449 
    9.6513 	   57.0780 	    3.0000 	   26.0000 	   40.2789 
    9.5903 	   57.2160 	    3.0000 	   26.0000 	   40.3479 
    9.6513 	   57.2780 	    3.0000 	   26.0000 	   40.3789 
    9.8039 	   57.3440 	    3.0000 	   26.0000 	   40.4119 
    9.8650 	   57.4060 	    3.0000 	   26.0000 	   40.4429 
    9.9870 	   57.4840 	    3.0000 	   26.0000 	   40.4819 
    9.9565 	   57.5480 	    3.0000 	   26.0000 	   40.5140 
    9.8650 	   57.6160 	    3.0000 	   26.0000 	   40.5480 
    9.9413 	   57.6820 	    3.0000 	   26.0000 	   40.5810 
    9.9870 	   57.7460 	    3.0000 	   26.0000 	   40.6130 
    9.9413 	   57.8140 	    3.0000 	   26.0000 	   40.6470 
    9.9870 	   57.8840 	    3.0000 	   26.0000 	   40.6820 
    9.9107 	   57.9500 	    3.0000 	   26.0000 	   40.7150 
    9.9870 	   58.0160 	    3.0000 	   26.0000 	   40.7480 
   10.0481 	   58.0800 	    3.0000 	   26.0000 	   40.7800 
    9.7887 	   58.1500 	    3.0000 	   26.0000 	   40.8150 
    9.8650 	   58.3160 	    3.0000 	   26.0000 	   40.8980 
   10.1854 	   58.3880 	    3.0000 	   26.0000 	   40.9340 
   10.1244 	   58.4560 	    3.0000 	   26.0000 	   40.9680 
   10.1091 	   58.5220 	    3.0000 	   26.0000 	   41.0010 
   10.1854 	   58.5900 	    3.0000 	   26.0000 	   41.0350 
   10.0023 	   58.6580 	    3.0000 	   26.0000 	   41.0690 
   10.2770 	   58.7140 	    3.0000 	   26.0000 	   41.0970 
   10.0786 	   58.7740 	    3.0000 	   26.0000 	   41.1270 
   10.3075 	   58.8420 	    3.0000 	   26.0000 	   41.1610 
   10.3838 	   58.9020 	    3.0000 	   26.0000 	   41.1910 
   10.3075 	   58.9580 	    3.0000 	   26.0000 	   41.2190 
   10.2312 	   59.0140 	    3.0000 	   26.0000 	   41.2470 
   10.4906 	   59.0700 	    3.0000 	   26.0000 	   41.2750 
   10.6126 	   59.1340 	    3.0000 	   26.0000 	   41.3070 
   10.6126 	   59.2000 	    3.0000 	   26.0000 	   41.3400 
   10.2617 	   59.2660 	    3.0000 	   26.0000 	   41.3730 
   10.3227 	   59.3240 	    3.0000 	   26.0000 	   41.4020 
   10.2922 	   59.3820 	    3.0000 	   26.0000 	   41.4310 
   10.0633 	   59.4480 	    3.0000 	   26.0000 	   41.4640 
    9.9718 	   59.5180 	    3.0000 	   26.0000 	   41.4990 
    9.7887 	   59.5820 	    3.0000 	   26.0000 	   41.5310 
    9.8039 	   59.6500 	    3.0000 	   26.0000 	   41.5650 
    9.6208 	   59.7140 	    3.0000 	   26.0000 	   41.5970 
    9.5750 	   59.7800 	    3.0000 	   26.0000 	   41.6300 
    9.4682 	   59.8460 	    3.0000 	   26.0000 	   41.6630 
    9.3462 	   59.9120 	    3.0000 	   26.0000 	   41.6960 
    9.3004 	   59.9740 	    3.0000 	   26.0000 	   41.7270 
    9.3614 	   60.0460 	    3.0000 	   26.0000 	   41.7630 
    9.1936 	   60.1120 	    3.0000 	   26.0000 	   41.7960 
    9.0410 	   60.1820 	    3.0000 	   26.0000 	   41.8310 
    9.0410 	   60.2500 	    3.0000 	   26.0000 	   41.8650 
    8.9189 	   60.3120 	    3.0000 	   26.0000 	   41.8960 
    8.7663 	   60.3740 	    3.0000 	   26.0000 	   41.9270 
    8.8731 	   60.4320 	    3.0000 	   26.0000 	   41.9560 
    8.7816 	   60.4940 	    3.0000 	   26.0000 	   41.9870 
    8.8273 	   60.5520 	    3.0000 	   26.0000 	   42.0160 
    8.6442 	   60.6100 	    3.0000 	   26.0000 	   42.0450 
    8.5985 	   60.6700 	    3.0000 	   26.0000 	   42.0750 
    8.5374 	   60.7260 	    3.0000 	   26.0000 	   42.1030 
    8.4001 	   60.7800 	    3.0000 	   26.0000 	   42.1300 
    8.5527 	   60.8360 	    3.0000 	   26.0000 	   42.1580 
    8.5374 	   60.8960 	    3.0000 	   26.0000 	   42.1880 
    8.4764 	   60.9620 	    3.0000 	   26.0000 	   42.2210 
    8.2170 	   61.0280 	    3.0000 	   26.0000 	   42.2541 
    8.3238 	   61.0920 	    3.0000 	   26.0000 	   42.2861 
    8.3238 	   61.1480 	    3.0000 	   26.0000 	   42.3141 
    8.2933 	   61.2080 	    3.0000 	   26.0000 	   42.3441 
    8.1865 	   61.2740 	    3.0000 	   26.0000 	   42.3771 
    8.0644 	   61.3480 	    3.0000 	   26.0000 	   42.4141 
    7.9271 	   61.4140 	    3.0000 	   26.0000 	   42.4471 
    8.0644 	   61.4800 	    3.0000 	   26.0000 	   42.4801 
    7.9423 	   61.5460 	    3.0000 	   26.0000 	   42.5131 
    7.9576 	   61.6100 	    3.0000 	   26.0000 	   42.5451 
    7.8202 	   61.6680 	    3.0000 	   26.0000 	   42.5741 
    7.8813 	   61.7280 	    3.0000 	   26.0000 	   42.6041 
    7.8508 	   61.7860 	    3.0000 	   26.0000 	   42.6331 
    7.4845 	   61.8440 	    3.0000 	   26.0000 	   42.6621 
    7.7897 	   61.9040 	    3.0000 	   26.0000 	   42.6921 
    7.6371 	   61.9620 	    3.0000 	   26.0000 	   42.7211 
    7.6371 	   62.0220 	    3.0000 	   26.0000 	   42.7511 
    7.7592 	   62.0780 	    3.0000 	   26.0000 	   42.7791 
    7.6677 	   62.1440 	    3.0000 	   26.0000 	   42.8121 
    7.5914 	   62.2020 	    3.0000 	   26.0000 	   42.8411 
    7.5761 	   62.2600 	    3.0000 	   26.0000 	   42.8701 
    7.6219 	   62.3200 	    3.0000 	   26.0000 	   42.9001 
    7.6219 	   62.3780 	    3.0000 	   26.0000 	   42.9291 
    7.5151 	   62.4380 	    3.0000 	   26.0000 	   42.9591 
    7.5761 	   62.4960 	    3.0000 	   26.0000 	   42.9881 
    7.4235 	   62.5580 	    3.0000 	   26.0000 	   43.0191 
    7.5151 	   62.6160 	    3.0000 	   26.0000 	   43.0481 
    7.4235 	   62.6740 	    3.0000 	   26.0000 	   43.0771 
    7.3777 	   62.7340 	    3.0000 	   26.0000 	   43.1071 
    7.3625 	   62.7900 	    3.0000 	   26.0000 	   43.1351 
    7.3625 	   62.8460 	    3.0000 	   26.0000 	   43.1631 
    7.1946 	   62.9100 	    3.0000 	   26.0000 	   43.1951 
    7.2709 	   62.9780 	    3.0000 	   26.0000 	   43.2291 
    7.2099 	   63.0440 	    3.0000 	   26.0000 	   43.2621 
    7.1641 	   63.1120 	    3.0000 	   26.0000 	   43.2961 
    7.3167 	   63.1780 	    3.0000 	   26.0000 	   43.3291 
    7.0726 	   63.2480 	    3.0000 	   26.0000 	   43.3641 
    6.9505 	   63.3120 	    3.0000 	   26.0000 	   43.3961 
    6.9200 	   63.3840 	    3.0000 	   26.0000 	   43.4321 
    6.9047 	   63.4480 	    3.0000 	   26.0000 	   43.4641 
    7.1489 	   63.5140 	    3.0000 	   26.0000 	   43.4971 
    6.8437 	   63.5780 	    3.0000 	   26.0000 	   43.5291 
    6.9963 	   63.6480 	    3.0000 	   26.0000 	   43.5641 
    6.9657 	   63.7120 	    3.0000 	   26.0000 	   43.5961 
    6.9047 	   63.7800 	    3.0000 	   26.0000 	   43.6301 
    6.9352 	   63.8460 	    3.0000 	   26.0000 	   43.6631 
    6.8589 	   63.9100 	    3.0000 	   26.0000 	   43.6951 
    6.6453 	   63.9740 	    3.0000 	   26.0000 	   43.7271 
    6.8437 	   64.0400 	    3.0000 	   26.0000 	   43.7601 
    6.8742 	   64.1100 	    3.0000 	   26.0000 	   43.7951 
    6.7826 	   64.1860 	    3.0000 	   26.0000 	   43.8331 
    6.6148 	   64.2500 	    3.0000 	   26.0000 	   43.8651 
    6.8284 	   64.3120 	    3.0000 	   26.0000 	   43.8961 
    6.6453 	   64.3760 	    3.0000 	   26.0000 	   43.9281 
    6.8437 	   64.4380 	    3.0000 	   26.0000 	   43.9591 
    6.6453 	   64.5000 	    3.0000 	   26.0000 	   43.9902 
    6.5385 	   64.5580 	    3.0000 	   26.0000 	   44.0191 
    6.5232 	   64.6180 	    3.0000 	   26.0000 	   44.0492 
    6.5537 	   64.6760 	    3.0000 	   26.0000 	   44.0782 
    6.5995 	   64.7360 	    3.0000 	   26.0000 	   44.1082 
    6.4775 	   64.7940 	    3.0000 	   26.0000 	   44.1372 
    6.5232 	   64.8520 	    3.0000 	   26.0000 	   44.1662 
    6.4012 	   64.9100 	    3.0000 	   26.0000 	   44.1952 
    6.3859 	   64.9740 	    3.0000 	   26.0000 	   44.2272 
    6.4469 	   65.0460 	    3.0000 	   26.0000 	   44.2622 
    6.3706 	   65.1160 	    3.0000 	   26.0000 	   44.2972 
    6.6453 	   65.1900 	    3.0000 	   26.0000 	   44.3342 
    6.3859 	   65.2540 	    3.0000 	   26.0000 	   44.3662 
    6.3401 	   65.3200 	    3.0000 	   26.0000 	   44.3992 
    6.3249 	   65.3860 	    3.0000 	   26.0000 	   44.4322 
    6.2943 	   65.4520 	    3.0000 	   26.0000 	   44.4652 
    6.5080 	   65.5200 	    3.0000 	   26.0000 	   44.4992 
    6.1418 	   65.5880 	    3.0000 	   26.0000 	   44.5332 
    6.1875 	   65.6580 	    3.0000 	   26.0000 	   44.5682 
    6.4012 	   65.7220 	    3.0000 	   26.0000 	   44.6002 
    6.1723 	   65.7860 	    3.0000 	   26.0000 	   44.6322 
    6.1570 	   65.8500 	    3.0000 	   26.0000 	   44.6642 
    6.2333 	   65.9200 	    3.0000 	   26.0000 	   44.6992 
    5.8671 	   65.9840 	    3.0000 	   26.0000 	   44.7312 
    6.1875 	   66.0500 	    3.0000 	   26.0000 	   44.7642 
    6.1265 	   66.1160 	    3.0000 	   26.0000 	   44.7972 
    6.2181 	   66.1900 	    3.0000 	   26.0000 	   44.8342 
    6.0044 	   66.2540 	    3.0000 	   26.0000 	   44.8662 
    6.1265 	   66.3200 	    3.0000 	   26.0000 	   44.8992 
    6.2638 	   66.3820 	    3.0000 	   26.0000 	   44.9302 
    5.9892 	   66.4460 	    3.0000 	   26.0000 	   44.9622 
    5.8061 	   66.5060 	    3.0000 	   26.0000 	   44.9922 
    6.1112 	   66.5660 	    3.0000 	   26.0000 	   45.0222 
    5.9434 	   66.6240 	    3.0000 	   26.0000 	   45.0512 
    6.0197 	   66.6840 	    3.0000 	   26.0000 	   45.0812 
    6.0502 	   66.7460 	    3.0000 	   26.0000 	   45.1122 
    6.0044 	   66.8100 	    3.0000 	   26.0000 	   45.1442 
    5.8824 	   66.8640 	    3.0000 	   26.0000 	   45.1712 
    5.8366 	   66.9240 	    3.0000 	   26.0000 	   45.2012 
    6.0655 	   66.9860 	    3.0000 	   26.0000 	   45.2322 
    5.8518 	   67.0460 	    3.0000 	   26.0000 	   45.2622 
    5.9586 	   67.1040 	    3.0000 	   26.0000 	   45.2912 
    5.7755 	   67.1700 	    3.0000 	   26.0000 	   45.3242 
    5.7908 	   67.2360 	    3.0000 	   26.0000 	   45.3572 
    5.8366 	   67.3020 	    3.0000 	   26.0000 	   45.3902 
    5.4856 	   67.3700 	    3.0000 	   26.0000 	   45.4242 
    5.8061 	   67.4400 	    3.0000 	   26.0000 	   45.4592 
    5.7450 	   67.5060 	    3.0000 	   26.0000 	   45.4922 
    5.6077 	   67.5740 	    3.0000 	   26.0000 	   45.5262 
    5.9129 	   67.6420 	    3.0000 	   26.0000 	   45.5602 
    5.7145 	   67.7060 	    3.0000 	   26.0000 	   45.5922 
    5.8366 	   67.7680 	    3.0000 	   26.0000 	   45.6232 
    5.8061 	   67.8300 	    3.0000 	   26.0000 	   45.6542 
    5.7450 	   67.8900 	    3.0000 	   26.0000 	   45.6842 
    5.6840 	   67.9540 	    3.0000 	   26.0000 	   45.7162 
    5.7755 	   68.0180 	    3.0000 	   26.0000 	   45.7482 
    5.5467 	   68.0800 	    3.0000 	   26.0000 	   45.7793 
    5.5161 	   68.1440 	    3.0000 	   26.0000 	   45.8113 
    5.6077 	   68.2120 	    3.0000 	   26.0000 	   45.8453 
    5.5314 	   68.2780 	    3.0000 	   26.0000 	   45.8783 
    5.5161 	   68.3480 	    3.0000 	   26.0000 	   45.9133 
    5.6229 	   68.4060 	    3.0000 	   26.0000 	   45.9423 
    5.4856 	   68.4660 	    3.0000 	   26.0000 	   45.9723 
    5.7145 	   68.5260 	    3.0000 	   26.0000 	   46.0023 
    5.3941 	   68.5900 	    3.0000 	   26.0000 	   46.0343 
    5.4093 	   68.6540 	    3.0000 	   26.0000 	   46.0663 
    5.5924 	   68.7140 	    3.0000 	   26.0000 	   46.0963 
    5.5161 	   68.7740 	    3.0000 	   26.0000 	   46.1263 
    5.3941 	   68.8340 	    3.0000 	   26.0000 	   46.1563 
    5.6077 	   68.8940 	    3.0000 	   26.0000 	   46.1863 
    5.3635 	   68.9520 	    3.0000 	   26.0000 	   46.2153 
    5.0889 	   69.0120 	    3.0000 	   26.0000 	   46.2453 
    5.1804 	   69.0740 	    3.0000 	   26.0000 	   46.2763 
    5.4551 	   69.1460 	    3.0000 	   26.0000 	   46.3123 
    5.3025 	   69.2160 	    3.0000 	   26.0000 	   46.3473 
    5.4704 	   69.2880 	    3.0000 	   26.0000 	   46.3833 
    5.4704 	   69.3520 	    3.0000 	   26.0000 	   46.4153 
    5.4246 	   69.4220 	    3.0000 	   26.0000 	   46.4503 
    5.4398 	   69.4880 	    3.0000 	   26.0000 	   46.4833 
    5.3483 	   69.5480 	    3.0000 	   26.0000 	   46.5133 
    5.3025 	   69.6040 	    3.0000 	   26.0000 	   46.5413 
    5.1957 	   69.6640 	    3.0000 	   26.0000 	   46.5713 
    5.3025 	   69.7280 	    3.0000 	   26.0000 	   46.6033 
    5.2720 	   69.7880 	    3.0000 	   26.0000 	   46.6333 
    5.2567 	   69.8460 	    3.0000 	   26.0000 	   46.6623 
    5.3635 	   69.9040 	    3.0000 	   26.0000 	   46.6913 
    5.4246 	   69.9680 	    3.0000 	   26.0000 	   46.7233 
    5.2110 	   70.0280 	    3.0000 	   26.0000 	   46.7533 
    5.0584 	   70.0840 	    3.0000 	   26.0000 	   46.7813 
    5.2110 	   70.1480 	    3.0000 	   26.0000 	   46.8133 
    5.1957 	   70.2120 	    3.0000 	   26.0000 	   46.8453 
    5.3483 	   70.2680 	    3.0000 	   26.0000 	   46.8733 
    5.1041 	   70.3260 	    3.0000 	   26.0000 	   46.9023 
    5.1652 	   70.3880 	    3.0000 	   26.0000 	   46.9333 
    5.1652 	   70.4480 	    3.0000 	   26.0000 	   46.9633 
    5.1957 	   70.5080 	    3.0000 	   26.0000 	   46.9933 
    5.2415 	   70.5660 	    3.0000 	   26.0000 	   47.0223 
    5.2262 	   70.6240 	    3.0000 	   26.0000 	   47.0513 
    5.1957 	   70.6860 	    3.0000 	   26.0000 	   47.0823 
    4.9363 	   70.7460 	    3.0000 	   26.0000 	   47.1123 
    5.0584 	   70.8040 	    3.0000 	   26.0000 	   47.1413 
    5.1804 	   70.8620 	    3.0000 	   26.0000 	   47.1703 
    5.0736 	   70.9220 	    3.0000 	   26.0000 	   47.2003 
    4.9973 	   70.9820 	    3.0000 	   26.0000 	   47.2303 
    5.1957 	   71.0420 	    3.0000 	   26.0000 	   47.2603 
    5.0736 	   71.1020 	    3.0000 	   26.0000 	   47.2903 
    5.1804 	   71.1680 	    3.0000 	   26.0000 	   47.3233 
    5.0584 	   71.2340 	    3.0000 	   26.0000 	   47.3563 
    4.9973 	   71.3040 	    3.0000 	   26.0000 	   47.3913 
    4.9058 	   71.3760 	    3.0000 	   26.0000 	   47.4273 
    4.9516 	   71.4460 	    3.0000 	   26.0000 	   47.4623 
    4.9973 	   71.5160 	    3.0000 	   26.0000 	   47.4973 
    4.9821 	   71.5820 	    3.0000 	   26.0000 	   47.5303 
    4.6921 	   71.6480 	    3.0000 	   26.0000 	   47.5634 
    4.9821 	   71.7140 	    3.0000 	   26.0000 	   47.5964 
    4.8905 	   71.7800 	    3.0000 	   26.0000 	   47.6294 
    4.9210 	   71.8460 	    3.0000 	   26.0000 	   47.6624 
    4.8447 	   71.9160 	    3.0000 	   26.0000 	   47.6974 
    4.7990 	   71.9840 	    3.0000 	   26.0000 	   47.7314 
    4.8600 	   72.0540 	    3.0000 	   26.0000 	   47.7664 
    4.8142 	   72.1220 	    3.0000 	   26.0000 	   47.8004 
    4.7532 	   72.1980 	    3.0000 	   26.0000 	   47.8384 
    4.6921 	   72.2680 	    3.0000 	   26.0000 	   47.8724 
    4.7227 	   72.3320 	    3.0000 	   26.0000 	   47.9054 
    4.7379 	   72.3940 	    3.0000 	   26.0000 	   47.9364 
    4.7837 	   72.4580 	    3.0000 	   26.0000 	   47.9684 
    4.7074 	   72.5180 	    3.0000 	   26.0000 	   47.9984 
    4.7532 	   72.5820 	    3.0000 	   26.0000 	   48.0304 
    4.7684 	   72.6420 	    3.0000 	   26.0000 	   48.0604 
    4.7379 	   72.7020 	    3.0000 	   26.0000 	   48.0904 
    4.4785 	   72.7620 	    3.0000 	   26.0000 	   48.1204 
    4.7379 	   72.8200 	    3.0000 	   26.0000 	   48.1494 
    4.7379 	   72.8840 	    3.0000 	   26.0000 	   48.1814 
    4.7227 	   72.9440 	    3.0000 	   26.0000 	   48.2114 
    4.7074 	   73.0120 	    3.0000 	   26.0000 	   48.2454 
    4.7074 	   73.0820 	    3.0000 	   26.0000 	   48.2804 
    4.6769 	   73.1520 	    3.0000 	   26.0000 	   48.3154 
    4.7990 	   73.2220 	    3.0000 	   26.0000 	   48.3504 
    4.4175 	   73.2960 	    3.0000 	   26.0000 	   48.3874 
    4.6464 	   73.3640 	    3.0000 	   26.0000 	   48.4214 
    4.7227 	   73.4320 	    3.0000 	   26.0000 	   48.4554 
    4.6769 	   73.5020 	    3.0000 	   26.0000 	   48.4904 
    4.6464 	   73.5700 	    3.0000 	   26.0000 	   48.5244 
    4.6006 	   73.6380 	    3.0000 	   26.0000 	   48.5584 
    4.5548 	   73.7100 	    3.0000 	   26.0000 	   48.5944 
    4.6159 	   73.7760 	    3.0000 	   26.0000 	   48.6274 
    4.5701 	   73.8500 	    3.0000 	   26.0000 	   48.6644 
    4.6006 	   73.9160 	    3.0000 	   26.0000 	   48.6974 
    4.5701 	   73.9880 	    3.0000 	   26.0000 	   48.7334 
    4.8142 	   74.0620 	    3.0000 	   26.0000 	   48.7704 
    4.4785 	   74.1280 	    3.0000 	   26.0000 	   48.8034 
    4.7837 	   74.2040 	    3.0000 	   26.0000 	   48.8414 
    4.2344 	   74.2720 	    3.0000 	   26.0000 	   48.8754 
    4.5548 	   74.3420 	    3.0000 	   26.0000 	   48.9104 
    4.4022 	   74.4100 	    3.0000 	   26.0000 	   48.9444 
    4.6464 	   74.4760 	    3.0000 	   26.0000 	   48.9774 
    4.5243 	   74.5400 	    3.0000 	   26.0000 	   49.0094 
    4.4480 	   74.6040 	    3.0000 	   26.0000 	   49.0414 
    4.4327 	   74.6640 	    3.0000 	   26.0000 	   49.0714 
    4.4327 	   74.7260 	    3.0000 	   26.0000 	   49.1024 
    4.4938 	   74.7860 	    3.0000 	   26.0000 	   49.1324 
    4.4633 	   74.8460 	    3.0000 	   26.0000 	   49.1624 
    4.4480 	   74.9080 	    3.0000 	   26.0000 	   49.1934 
    4.3717 	   74.9740 	    3.0000 	   26.0000 	   49.2264 
    4.6006 	   75.0440 	    3.0000 	   26.0000 	   49.2615 
    4.4022 	   75.1160 	    3.0000 	   26.0000 	   49.2975 
    4.4785 	   75.1880 	    3.0000 	   26.0000 	   49.3335 
    4.2344 	   75.2540 	    3.0000 	   26.0000 	   49.3665 
    4.4480 	   75.3240 	    3.0000 	   26.0000 	   49.4015 
    4.3259 	   75.3900 	    3.0000 	   26.0000 	   49.4345 
    4.4633 	   75.4620 	    3.0000 	   26.0000 	   49.4705 
    4.2649 	   75.5300 	    3.0000 	   26.0000 	   49.5045 
    4.3107 	   75.5960 	    3.0000 	   26.0000 	   49.5375 
    4.2649 	   75.6660 	    3.0000 	   26.0000 	   49.5725 
    4.4175 	   75.7340 	    3.0000 	   26.0000 	   49.6065 
    4.4633 	   75.8040 	    3.0000 	   26.0000 	   49.6415 
    4.0360 	   75.8760 	    3.0000 	   26.0000 	   49.6775 
    4.1886 	   75.9440 	    3.0000 	   26.0000 	   49.7115 
    4.2496 	   76.0160 	    3.0000 	   26.0000 	   49.7475 
    4.2496 	   76.0860 	    3.0000 	   26.0000 	   49.7825 
    4.2191 	   76.1640 	    3.0000 	   26.0000 	   49.8215 
    4.3259 	   76.2300 	    3.0000 	   26.0000 	   49.8545 
    4.1428 	   76.2980 	    3.0000 	   26.0000 	   49.8885 
    4.2802 	   76.3680 	    3.0000 	   26.0000 	   49.9235 
    4.2496 	   76.4300 	    3.0000 	   26.0000 	   49.9545 
    4.3107 	   76.4940 	    3.0000 	   26.0000 	   49.9865 
    4.2496 	   76.5580 	    3.0000 	   26.0000 	   50.0185 
    4.1733 	   76.6280 	    3.0000 	   26.0000 	   50.0535 
    4.1123 	   76.6900 	    3.0000 	   26.0000 	   50.0845 
    4.2191 	   76.7560 	    3.0000 	   26.0000 	   50.1175 
    3.9292 	   76.8200 	    3.0000 	   26.0000 	   50.1495 
    4.0513 	   76.8780 	    3.0000 	   26.0000 	   50.1785 
    4.1886 	   76.9400 	    3.0000 	   26.0000 	   50.2095 
    4.2191 	   77.0000 	    3.0000 	   26.0000 	   50.2395 
    4.1733 	   77.0620 	    3.0000 	   26.0000 	   50.2705 
    4.1276 	   77.1260 	    3.0000 	   26.0000 	   50.3025 
    4.1581 	   77.1920 	    3.0000 	   26.0000 	   50.3355 
    4.2802 	   77.2580 	    3.0000 	   26.0000 	   50.3685 
    4.2191 	   77.3260 	    3.0000 	   26.0000 	   50.4025 
    4.1581 	   77.3960 	    3.0000 	   26.0000 	   50.4375 
    4.0970 	   77.4680 	    3.0000 	   26.0000 	   50.4735 
    4.1276 	   77.5360 	    3.0000 	   26.0000 	   50.5075 
    4.1276 	   77.6060 	    3.0000 	   26.0000 	   50.5425 
    4.0360 	   77.6740 	    3.0000 	   26.0000 	   50.5765 
    4.0208 	   77.7480 	    3.0000 	   26.0000 	   50.6135 
    3.9597 	   77.8180 	    3.0000 	   26.0000 	   50.6485 
    4.1276 	   77.8860 	    3.0000 	   26.0000 	   50.6825 
    3.9750 	   77.9560 	    3.0000 	   26.0000 	   50.7175 
    4.0513 	   78.0260 	    3.0000 	   26.0000 	   50.7525 
    3.9139 	   78.0940 	    3.0000 	   26.0000 	   50.7865 
    3.8071 	   78.1740 	    3.0000 	   26.0000 	   50.8265 
    4.0513 	   78.2440 	    3.0000 	   26.0000 	   50.8615 
    4.0208 	   78.3140 	    3.0000 	   26.0000 	   50.8965 
    3.7156 	   78.3780 	    3.0000 	   26.0000 	   50.9285 
    3.9292 	   78.4400 	    3.0000 	   26.0000 	   50.9595 
    4.0818 	   78.5080 	    3.0000 	   26.0000 	   50.9935 
    3.9445 	   78.5720 	    3.0000 	   26.0000 	   51.0256 
    3.9597 	   78.6380 	    3.0000 	   26.0000 	   51.0586 
    3.9292 	   78.7000 	    3.0000 	   26.0000 	   51.0896 
    4.0055 	   78.7600 	    3.0000 	   26.0000 	   51.1196 
    3.8529 	   78.8200 	    3.0000 	   26.0000 	   51.1496 
    3.9597 	   78.8780 	    3.0000 	   26.0000 	   51.1786 
    3.7919 	   78.9420 	    3.0000 	   26.0000 	   51.2106 
    3.9292 	   79.0020 	    3.0000 	   26.0000 	   51.2406 
    3.8682 	   79.0680 	    3.0000 	   26.0000 	   51.2736 
    3.9292 	   79.1340 	    3.0000 	   26.0000 	   51.3066 
    3.9445 	   79.2000 	    3.0000 	   26.0000 	   51.3396 
    3.8834 	   79.2660 	    3.0000 	   26.0000 	   51.3726 
    3.9292 	   79.3360 	    3.0000 	   26.0000 	   51.4076 
    3.9445 	   79.4040 	    3.0000 	   26.0000 	   51.4416 
    3.7308 	   79.4720 	    3.0000 	   26.0000 	   51.4756 
    3.7156 	   79.5440 	    3.0000 	   26.0000 	   51.5116 
    3.7156 	   79.6120 	    3.0000 	   26.0000 	   51.5456 
    3.8376 	   79.6820 	    3.0000 	   26.0000 	   51.5806 
    3.7766 	   79.7520 	    3.0000 	   26.0000 	   51.6156 
    3.9139 	   79.8220 	    3.0000 	   26.0000 	   51.6506 
    3.7766 	   79.8880 	    3.0000 	   26.0000 	   51.6836 
    3.8682 	   79.9600 	    3.0000 	   26.0000 	   51.7196 
    3.8376 	   80.0320 	    3.0000 	   26.0000 	   51.7556 
    3.6393 	   80.1000 	    3.0000 	   26.0000 	   51.7896 
    3.7461 	   80.1740 	    3.0000 	   26.0000 	   51.8266 
    3.8071 	   80.2460 	    3.0000 	   26.0000 	   51.8626 
    3.7308 	   80.3140 	    3.0000 	   26.0000 	   51.8966 
    3.8834 	   80.3840 	    3.0000 	   26.0000 	   51.9316 
    3.6240 	   80.4480 	    3.0000 	   26.0000 	   51.9636 
    3.7613 	   80.5120 	    3.0000 	   26.0000 	   51.9956 
    3.7156 	   80.5760 	    3.0000 	   26.0000 	   52.0276 
    3.7919 	   80.6360 	    3.0000 	   26.0000 	   52.0576 
    3.8224 	   80.7040 	    3.0000 	   26.0000 	   52.0916 
    3.7919 	   80.7700 	    3.0000 	   26.0000 	   52.1246 
    3.6698 	   80.8340 	    3.0000 	   26.0000 	   52.1566 
    3.6240 	   80.8960 	    3.0000 	   26.0000 	   52.1876 
    3.6240 	   80.9560 	    3.0000 	   26.0000 	   52.2176 
    3.6851 	   81.0240 	    3.0000 	   26.0000 	   52.2516 
    3.5630 	   81.0900 	    3.0000 	   26.0000 	   52.2846 
    3.6545 	   81.1580 	    3.0000 	   26.0000 	   52.3186 
    3.7613 	   81.2280 	    3.0000 	   26.0000 	   52.3536 
    3.7919 	   81.2980 	    3.0000 	   26.0000 	   52.3886 
    3.5172 	   81.3640 	    3.0000 	   26.0000 	   52.4216 
    3.6698 	   81.4340 	    3.0000 	   26.0000 	   52.4566 
    3.5630 	   81.5040 	    3.0000 	   26.0000 	   52.4916 
    3.6851 	   81.5740 	    3.0000 	   26.0000 	   52.5266 
    3.5019 	   81.6440 	    3.0000 	   26.0000 	   52.5616 
    3.5325 	   81.7140 	    3.0000 	   26.0000 	   52.5966 
    3.7156 	   81.7820 	    3.0000 	   26.0000 	   52.6306 
    3.5172 	   81.8520 	    3.0000 	   26.0000 	   52.6656 
    3.3646 	   81.9200 	    3.0000 	   26.0000 	   52.6996 
    3.6088 	   81.9940 	    3.0000 	   26.0000 	   52.7366 
    3.5019 	   82.0620 	    3.0000 	   26.0000 	   52.7707 
    3.5172 	   82.1340 	    3.0000 	   26.0000 	   52.8067 
    3.5477 	   82.2080 	    3.0000 	   26.0000 	   52.8437 
    3.5019 	   82.2820 	    3.0000 	   26.0000 	   52.8807 
    3.6240 	   82.3540 	    3.0000 	   26.0000 	   52.9167 
    3.5477 	   82.4200 	    3.0000 	   26.0000 	   52.9497 
    3.5477 	   82.4840 	    3.0000 	   26.0000 	   52.9817 
    3.4562 	   82.5460 	    3.0000 	   26.0000 	   53.0127 
    3.3799 	   82.6100 	    3.0000 	   26.0000 	   53.0447 
    3.2578 	   82.6740 	    3.0000 	   26.0000 	   53.0767 
    3.4409 	   82.7420 	    3.0000 	   26.0000 	   53.1107 
    3.4104 	   82.8080 	    3.0000 	   26.0000 	   53.1437 
    3.3341 	   82.8700 	    3.0000 	   26.0000 	   53.1747 
    3.4867 	   82.9300 	    3.0000 	   26.0000 	   53.2047 
    3.4409 	   82.9920 	    3.0000 	   26.0000 	   53.2357 
    3.3799 	   83.0620 	    3.0000 	   26.0000 	   53.2707 
    3.5935 	   83.1240 	    3.0000 	   26.0000 	   53.3017 
    3.5630 	   83.1860 	    3.0000 	   26.0000 	   53.3327 
    3.3494 	   83.2480 	    3.0000 	   26.0000 	   53.3637 
    3.5019 	   83.3100 	    3.0000 	   26.0000 	   53.3947 
    3.4409 	   83.3720 	    3.0000 	   26.0000 	   53.4257 
    3.3799 	   83.4360 	    3.0000 	   26.0000 	   53.4577 
    3.3951 	   83.5040 	    3.0000 	   26.0000 	   53.4917 
    3.4867 	   83.5680 	    3.0000 	   26.0000 	   53.5237 
    3.4409 	   83.6340 	    3.0000 	   26.0000 	   53.5567 
    3.3494 	   83.7000 	    3.0000 	   26.0000 	   53.5897 
    3.4409 	   83.7700 	    3.0000 	   26.0000 	   53.6247 
    2.9984 	   83.8400 	    3.0000 	   26.0000 	   53.6597 
    3.3341 	   83.9080 	    3.0000 	   26.0000 	   53.6937 
    3.2273 	   83.9760 	    3.0000 	   26.0000 	   53.7277 
    3.3341 	   84.0460 	    3.0000 	   26.0000 	   53.7627 
    2.9679 	   84.1160 	    3.0000 	   26.0000 	   53.7977 
    3.3036 	   84.1920 	    3.0000 	   26.0000 	   53.8357 
    3.1205 	   84.2620 	    3.0000 	   26.0000 	   53.8707 
    3.2578 	   84.3340 	    3.0000 	   26.0000 	   53.9067 
    3.2425 	   84.4040 	    3.0000 	   26.0000 	   53.9417 
    3.2883 	   84.4740 	    3.0000 	   26.0000 	   53.9767 
    3.4257 	   84.5420 	    3.0000 	   26.0000 	   54.0107 
    3.3494 	   84.6060 	    3.0000 	   26.0000 	   54.0427 
    3.3951 	   84.6740 	    3.0000 	   26.0000 	   54.0767 
    3.2120 	   84.7380 	    3.0000 	   26.0000 	   54.1087 
    3.3799 	   84.8000 	    3.0000 	   26.0000 	   54.1397 
    3.3341 	   84.8620 	    3.0000 	   26.0000 	   54.1707 
    3.3036 	   84.9240 	    3.0000 	   26.0000 	   54.2017 
    3.2120 	   84.9880 	    3.0000 	   26.0000 	   54.2337 
    3.2425 	   85.0500 	    3.0000 	   26.0000 	   54.2647 
    3.0747 	   85.1120 	    3.0000 	   26.0000 	   54.2957 
    3.3646 	   85.1740 	    3.0000 	   26.0000 	   54.3267 
    3.3036 	   85.2380 	    3.0000 	   26.0000 	   54.3587 
    3.2578 	   85.3000 	    3.0000 	   26.0000 	   54.3897 
    2.9221 	   85.3680 	    3.0000 	   26.0000 	   54.4237 
    3.2578 	   85.4340 	    3.0000 	   26.0000 	   54.4567 
    3.1968 	   85.4980 	    3.0000 	   26.0000 	   54.4888 
    3.1662 	   85.5680 	    3.0000 	   26.0000 	   54.5238 
    3.1205 	   85.6360 	    3.0000 	   26.0000 	   54.5578 
    2.9068 	   85.7060 	    3.0000 	   26.0000 	   54.5928 
    3.1052 	   85.7760 	    3.0000 	   26.0000 	   54.6278 
    2.7543 	   85.8440 	    3.0000 	   26.0000 	   54.6618 
    3.1205 	   85.9140 	    3.0000 	   26.0000 	   54.6968 
    3.1357 	   85.9900 	    3.0000 	   26.0000 	   54.7348 
    3.0900 	   86.0600 	    3.0000 	   26.0000 	   54.7698 
    3.1205 	   86.1340 	    3.0000 	   26.0000 	   54.8068 
    3.1357 	   86.2100 	    3.0000 	   26.0000 	   54.8448 
    3.1052 	   86.2780 	    3.0000 	   26.0000 	   54.8788 
    2.8916 	   86.3480 	    3.0000 	   26.0000 	   54.9138 
    3.0747 	   86.4200 	    3.0000 	   26.0000 	   54.9498 
    3.0594 	   86.4820 	    3.0000 	   26.0000 	   54.9808 
    2.8916 	   86.5460 	    3.0000 	   26.0000 	   55.0118 
    3.0289 	   86.6080 	    3.0000 	   26.0000 	   55.0438 
    2.9526 	   86.6740 	    3.0000 	   26.0000 	   55.0768 
    2.9679 	   86.7380 	    3.0000 	   26.0000 	   55.1088 
    3.0137 	   86.8000 	    3.0000 	   26.0000 	   55.1398 
    3.1357 	   86.8620 	    3.0000 	   26.0000 	   55.1708 
    3.1205 	   86.9220 	    3.0000 	   26.0000 	   55.2008 
    2.9984 	   86.9880 	    3.0000 	   26.0000 	   55.2338 
    2.9679 	   87.0540 	    3.0000 	   26.0000 	   55.2668 
    3.0900 	   87.1260 	    3.0000 	   26.0000 	   55.3028 
    2.8916 	   87.1980 	    3.0000 	   26.0000 	   55.3388 
    3.1357 	   87.2700 	    3.0000 	   26.0000 	   55.3748 
    3.0289 	   87.3420 	    3.0000 	   26.0000 	   55.4108 
    2.9526 	   87.4120 	    3.0000 	   26.0000 	   55.4458 
    3.0289 	   87.4840 	    3.0000 	   26.0000 	   55.4818 
    2.9374 	   87.5560 	    3.0000 	   26.0000 	   55.5178 
    3.1052 	   87.6260 	    3.0000 	   26.0000 	   55.5528 
    2.9984 	   87.7000 	    3.0000 	   26.0000 	   55.5898 
    2.8458 	   87.7680 	    3.0000 	   26.0000 	   55.6238 
    2.9831 	   87.8360 	    3.0000 	   26.0000 	   55.6578 
    3.1205 	   87.9040 	    3.0000 	   26.0000 	   55.6918 
    2.8305 	   87.9720 	    3.0000 	   26.0000 	   55.7258 
    2.9068 	   88.0440 	    3.0000 	   26.0000 	   55.7618 
    2.9374 	   88.1140 	    3.0000 	   26.0000 	   55.7968 
    3.0594 	   88.1900 	    3.0000 	   26.0000 	   55.8348 
    2.8916 	   88.2640 	    3.0000 	   26.0000 	   55.8718 
    2.8763 	   88.3340 	    3.0000 	   26.0000 	   55.9068 
    2.8763 	   88.3960 	    3.0000 	   26.0000 	   55.9378 
    2.9526 	   88.4620 	    3.0000 	   26.0000 	   55.9708 
    2.9679 	   88.5280 	    3.0000 	   26.0000 	   56.0038 
    2.7390 	   88.6020 	    3.0000 	   26.0000 	   56.0408 
    2.9526 	   88.6740 	    3.0000 	   26.0000 	   56.0768 
    2.9221 	   88.7460 	    3.0000 	   26.0000 	   56.1128 
    2.7848 	   88.8100 	    3.0000 	   26.0000 	   56.1448 
    2.7085 	   88.8720 	    3.0000 	   26.0000 	   56.1758 
    2.8000 	   88.9340 	    3.0000 	   26.0000 	   56.2068 
    2.8458 	   89.0020 	    3.0000 	   26.0000 	   56.2408 
    2.7390 	   89.0700 	    3.0000 	   26.0000 	   56.2749 
    2.8153 	   89.1360 	    3.0000 	   26.0000 	   56.3079 
    2.7543 	   89.1980 	    3.0000 	   26.0000 	   56.3389 
    2.6932 	   89.2620 	    3.0000 	   26.0000 	   56.3709 
    3.0137 	   89.3260 	    3.0000 	   26.0000 	   56.4029 
    2.6932 	   89.4000 	    3.0000 	   26.0000 	   56.4399 
    2.9068 	   89.4680 	    3.0000 	   26.0000 	   56.4739 
    2.8153 	   89.5320 	    3.0000 	   26.0000 	   56.5059 
    2.7237 	   89.6060 	    3.0000 	   26.0000 	   56.5429 
    2.8458 	   89.6780 	    3.0000 	   26.0000 	   56.5789 
    2.9679 	   89.7500 	    3.0000 	   26.0000 	   56.6149 
    2.6169 	   89.8220 	    3.0000 	   26.0000 	   56.6509 
    2.8611 	   89.8920 	    3.0000 	   26.0000 	   56.6859 
    2.7695 	   89.9640 	    3.0000 	   26.0000 	   56.7219 
    2.6932 	   90.0360 	    3.0000 	   26.0000 	   56.7579 
    2.8305 	   90.1060 	    3.0000 	   26.0000 	   56.7929 
    2.4491 	   90.1860 	    3.0000 	   26.0000 	   56.8329 
    2.7848 	   90.2540 	    3.0000 	   26.0000 	   56.8669 
    2.7390 	   90.3220 	    3.0000 	   26.0000 	   56.9009 
    2.6780 	   90.3880 	    3.0000 	   26.0000 	   56.9329 
    2.6627 	   90.4540 	    3.0000 	   26.0000 	   56.9669 
    2.6780 	   90.5220 	    3.0000 	   26.0000 	   57.0009 
    2.6932 	   90.5880 	    3.0000 	   26.0000 	   57.0339 
    2.7085 	   90.6500 	    3.0000 	   26.0000 	   57.0649 
    2.6474 	   90.7120 	    3.0000 	   26.0000 	   57.0949 
    2.6169 	   90.7760 	    3.0000 	   26.0000 	   57.1279 
    2.6932 	   90.8380 	    3.0000 	   26.0000 	   57.1589 
    2.6627 	   90.8980 	    3.0000 	   26.0000 	   57.1889 
    2.6780 	   90.9600 	    3.0000 	   26.0000 	   57.2199 
    2.7085 	   91.0240 	    3.0000 	   26.0000 	   57.2519 
    2.5711 	   91.0880 	    3.0000 	   26.0000 	   57.2839 
    2.6322 	   91.1500 	    3.0000 	   26.0000 	   57.3149 
    2.6169 	   91.2120 	    3.0000 	   26.0000 	   57.3459 
    2.6169 	   91.2760 	    3.0000 	   26.0000 	   57.3779 
    2.6322 	   91.3440 	    3.0000 	   26.0000 	   57.4119 
    2.5864 	   91.4160 	    3.0000 	   26.0000 	   57.4479 
    2.5864 	   91.4860 	    3.0000 	   26.0000 	   57.4829 
    2.6169 	   91.5560 	    3.0000 	   26.0000 	   57.5179 
    2.6932 	   91.6280 	    3.0000 	   26.0000 	   57.5539 
    2.5864 	   91.6980 	    3.0000 	   26.0000 	   57.5889 
    2.6627 	   91.7700 	    3.0000 	   26.0000 	   57.6249 
    2.6169 	   91.8400 	    3.0000 	   26.0000 	   57.6599 
    2.7085 	   91.9120 	    3.0000 	   26.0000 	   57.6959 
    2.5711 	   91.9800 	    3.0000 	   26.0000 	   57.7299 
    2.5559 	   92.0460 	    3.0000 	   26.0000 	   57.7629 
    2.5254 	   92.1160 	    3.0000 	   26.0000 	   57.7979 
    2.6780 	   92.1940 	    3.0000 	   26.0000 	   57.8369 
    2.5559 	   92.2620 	    3.0000 	   26.0000 	   57.8709 
    2.5406 	   92.3340 	    3.0000 	   26.0000 	   57.9069 
    2.5254 	   92.4000 	    3.0000 	   26.0000 	   57.9399 
    2.4643 	   92.4660 	    3.0000 	   26.0000 	   57.9729 
    2.5406 	   92.5300 	    3.0000 	   26.0000 	   58.0050 
    2.4186 	   92.5960 	    3.0000 	   26.0000 	   58.0380 
    2.4948 	   92.6600 	    3.0000 	   26.0000 	   58.0700 
    2.2049 	   92.7240 	    3.0000 	   26.0000 	   58.1020 
    2.4948 	   92.7860 	    3.0000 	   26.0000 	   58.1330 
    2.5864 	   92.8500 	    3.0000 	   26.0000 	   58.1650 
    2.4796 	   92.9100 	    3.0000 	   26.0000 	   58.1950 
    2.4796 	   92.9720 	    3.0000 	   26.0000 	   58.2260 
    2.5406 	   93.0440 	    3.0000 	   26.0000 	   58.2620 
    2.4033 	   93.1160 	    3.0000 	   26.0000 	   58.2980 
    2.3728 	   93.1840 	    3.0000 	   26.0000 	   58.3320 
    2.6017 	   93.2540 	    3.0000 	   26.0000 	   58.3670 
    2.3423 	   93.3220 	    3.0000 	   26.0000 	   58.4010 
    2.3423 	   93.3900 	    3.0000 	   26.0000 	   58.4350 
    2.4033 	   93.4580 	    3.0000 	   26.0000 	   58.4690 
    2.4491 	   93.5280 	    3.0000 	   26.0000 	   58.5040 
    2.3270 	   93.6000 	    3.0000 	   26.0000 	   58.5400 
    2.3423 	   93.6680 	    3.0000 	   26.0000 	   58.5740 
    2.2660 	   93.7440 	    3.0000 	   26.0000 	   58.6120 
    2.3117 	   93.8140 	    3.0000 	   26.0000 	   58.6470 
    2.3423 	   93.8840 	    3.0000 	   26.0000 	   58.6820 
    2.3728 	   93.9520 	    3.0000 	   26.0000 	   58.7160 
    2.4186 	   94.0260 	    3.0000 	   26.0000 	   58.7530 
    2.4033 	   94.1000 	    3.0000 	   26.0000 	   58.7900 
    2.3728 	   94.1760 	    3.0000 	   26.0000 	   58.8280 
    2.3880 	   94.2480 	    3.0000 	   26.0000 	   58.8640 
    2.2507 	   94.3180 	    3.0000 	   26.0000 	   58.8990 
    2.4338 	   94.3880 	    3.0000 	   26.0000 	   58.9340 
    2.3423 	   94.4540 	    3.0000 	   26.0000 	   58.9670 
    2.3117 	   94.5200 	    3.0000 	   26.0000 	   59.0000 
    2.1286 	   94.5840 	    3.0000 	   26.0000 	   59.0320 
    2.4796 	   94.6520 	    3.0000 	   26.0000 	   59.0660 
    2.4186 	   94.7140 	    3.0000 	   26.0000 	   59.0970 
    2.2812 	   94.7780 	    3.0000 	   26.0000 	   59.1290 
    2.3117 	   94.8420 	    3.0000 	   26.0000 	   59.1610 
    2.2507 	   94.9020 	    3.0000 	   26.0000 	   59.1910 
    2.2507 	   94.9660 	    3.0000 	   26.0000 	   59.2230 
    2.2507 	   95.0340 	    3.0000 	   26.0000 	   59.2570 
    2.3270 	   95.1080 	    3.0000 	   26.0000 	   59.2940 
    2.1897 	   95.1780 	    3.0000 	   26.0000 	   59.3290 
    2.1286 	   95.2480 	    3.0000 	   26.0000 	   59.3640 
    2.1592 	   95.3240 	    3.0000 	   26.0000 	   59.4010 
    2.3270 	   95.3900 	    3.0000 	   26.0000 	   59.4350 
    2.3728 	   95.4620 	    3.0000 	   26.0000 	   59.4710 
    2.2049 	   95.5320 	    3.0000 	   26.0000 	   59.5060 
    2.3423 	   95.6020 	    3.0000 	   26.0000 	   59.5410 
    2.0676 	   95.6740 	    3.0000 	   26.0000 	   59.5770 
    2.3117 	   95.7500 	    3.0000 	   26.0000 	   59.6150 
    1.9608 	   95.8200 	    3.0000 	   26.0000 	   59.6500 
    2.1744 	   95.8900 	    3.0000 	   26.0000 	   59.6850 
    2.0066 	   95.9620 	    3.0000 	   26.0000 	   59.7210 
    2.1286 	   96.0340 	    3.0000 	   26.0000 	   59.7570 
    2.2354 	   96.1020 	    3.0000 	   26.0000 	   59.7911 
    2.4491 	   96.1820 	    3.0000 	   26.0000 	   59.8311 
    2.1744 	   96.2520 	    3.0000 	   26.0000 	   59.8661 
    2.1286 	   96.3220 	    3.0000 	   26.0000 	   59.9011 
    1.9760 	   96.3920 	    3.0000 	   26.0000 	   59.9361 
    2.1744 	   96.4620 	    3.0000 	   26.0000 	   59.9711 
    2.0829 	   96.5300 	    3.0000 	   27.0000 	    0.0051 
    2.2202 	   96.5960 	    3.0000 	   27.0000 	    0.0381 
    2.2049 	   96.6620 	    3.0000 	   27.0000 	    0.0711 
    2.1439 	   96.7260 	    3.0000 	   27.0000 	    0.1031 
    2.1134 	   96.7900 	    3.0000 	   27.0000 	    0.1351 
    2.0676 	   96.8560 	    3.0000 	   27.0000 	    0.1681 
    1.9913 	   96.9180 	    3.0000 	   27.0000 	    0.1991 
    2.2507 	   96.9780 	    3.0000 	   27.0000 	    0.2291 
    2.1897 	   97.0420 	    3.0000 	   27.0000 	    0.2611 
    2.2049 	   97.1100 	    3.0000 	   27.0000 	    0.2951 
    2.0523 	   97.1780 	    3.0000 	   27.0000 	    0.3291 
    2.0676 	   97.2460 	    3.0000 	   27.0000 	    0.3631 
    2.2049 	   97.3200 	    3.0000 	   27.0000 	    0.4001 
    2.0218 	   97.3920 	    3.0000 	   27.0000 	    0.4361 
    2.1744 	   97.4640 	    3.0000 	   27.0000 	    0.4721 
    2.1134 	   97.5360 	    3.0000 	   27.0000 	    0.5081 
    2.1592 	   97.6080 	    3.0000 	   27.0000 	    0.5441 
    2.1134 	   97.6720 	    3.0000 	   27.0000 	    0.5761 
    1.9760 	   97.7360 	    3.0000 	   27.0000 	    0.6081 
    2.0676 	   97.7980 	    3.0000 	   27.0000 	    0.6391 
    1.9913 	   97.8700 	    3.0000 	   27.0000 	    0.6751 
    2.0218 	   97.9400 	    3.0000 	   27.0000 	    0.7101 
    2.0523 	   98.0120 	    3.0000 	   27.0000 	    0.7461 
    1.9608 	   98.0820 	    3.0000 	   27.0000 	    0.7811 
    2.0523 	   98.1620 	    3.0000 	   27.0000 	    0.8211 
    2.0981 	   98.2300 	    3.0000 	   27.0000 	    0.8551 
    1.7319 	   98.2980 	    3.0000 	   27.0000 	    0.8891 
    1.9608 	   98.3720 	    3.0000 	   27.0000 	    0.9261 
    2.0218 	   98.4460 	    3.0000 	   27.0000 	    0.9631 
    1.8387 	   98.5120 	    3.0000 	   27.0000 	    0.9961 
    1.8692 	   98.5780 	    3.0000 	   27.0000 	    1.0291 
    2.0066 	   98.6420 	    3.0000 	   27.0000 	    1.0611 
    2.0218 	   98.7160 	    3.0000 	   27.0000 	    1.0981 
    2.0829 	   98.7820 	    3.0000 	   27.0000 	    1.1311 
    1.9913 	   98.8480 	    3.0000 	   27.0000 	    1.1641 
    1.8997 	   98.9100 	    3.0000 	   27.0000 	    1.1951 
    1.9608 	   98.9700 	    3.0000 	   27.0000 	    1.2251 
    1.9608 	   99.0340 	    3.0000 	   27.0000 	    1.2571 
    1.9608 	   99.0980 	    3.0000 	   27.0000 	    1.2891 
    1.9455 	   99.1640 	    3.0000 	   27.0000 	    1.3221 
    2.0829 	   99.2360 	    3.0000 	   27.0000 	    1.3581 
    2.0371 	   99.3080 	    3.0000 	   27.0000 	    1.3941 
    1.9455 	   99.3820 	    3.0000 	   27.0000 	    1.4311 
    1.8082 	   99.4560 	    3.0000 	   27.0000 	    1.4681 
    1.8997 	   99.5260 	    3.0000 	   27.0000 	    1.5032 
    1.8235 	   99.5980 	    3.0000 	   27.0000 	    1.5392 
    1.8387 	   99.6700 	    3.0000 	   27.0000 	    1.5752 
    1.8540 	   99.7420 	    3.0000 	   27.0000 	    1.6112 
    1.9608 	   99.8080 	    3.0000 	   27.0000 	    1.6442 
    1.9760 	   99.8840 	    3.0000 	   27.0000 	    1.6822 
    1.8235 	   99.9540 	    3.0000 	   27.0000 	    1.7172 
    1.8387 	  100.0260 	    3.0000 	   27.0000 	    1.7522 
    1.8540 	  100.0940 	    3.0000 	   27.0000 	    1.7862 
    1.7166 	  100.1660 	    3.0000 	   27.0000 	    1.8222 
    1.7166 	  100.2300 	    3.0000 	   27.0000 	    1.8542 
    1.8845 	  100.3000 	    3.0000 	   27.0000 	    1.8892 
    1.8997 	  100.3660 	    3.0000 	   27.0000 	    1.9222 
    1.8692 	  100.4360 	    3.0000 	   27.0000 	    1.9572 
    1.7777 	  100.5080 	    3.0000 	   27.0000 	    1.9932 
    1.7472 	  100.5740 	    3.0000 	   27.0000 	    2.0262 
    1.8845 	  100.6380 	    3.0000 	   27.0000 	    2.0582 
    1.8082 	  100.7060 	    3.0000 	   27.0000 	    2.0922 
    1.7624 	  100.7700 	    3.0000 	   27.0000 	    2.1242 
    1.7472 	  100.8400 	    3.0000 	   27.0000 	    2.1592 
    1.7777 	  100.9040 	    3.0000 	   27.0000 	    2.1912 
    1.7319 	  100.9660 	    3.0000 	   27.0000 	    2.2222 
    1.7472 	  101.0280 	    3.0000 	   27.0000 	    2.2532 
    1.8235 	  101.0920 	    3.0000 	   27.0000 	    2.2852 
    1.7166 	  101.1600 	    3.0000 	   27.0000 	    2.3192 
    1.6403 	  101.2320 	    3.0000 	   27.0000 	    2.3552 
    1.8845 	  101.3000 	    3.0000 	   27.0000 	    2.3892 
    1.8387 	  101.3740 	    3.0000 	   27.0000 	    2.4262 
    1.6709 	  101.4480 	    3.0000 	   27.0000 	    2.4632 
    1.7014 	  101.5200 	    3.0000 	   27.0000 	    2.4992 
    1.6861 	  101.5920 	    3.0000 	   27.0000 	    2.5352 
    1.7472 	  101.6620 	    3.0000 	   27.0000 	    2.5702 
    1.7472 	  101.7300 	    3.0000 	   27.0000 	    2.6042 
    1.6709 	  101.8000 	    3.0000 	   27.0000 	    2.6392 
    1.8235 	  101.8700 	    3.0000 	   27.0000 	    2.6742 
    1.7472 	  101.9480 	    3.0000 	   27.0000 	    2.7132 
    1.6861 	  102.0180 	    3.0000 	   27.0000 	    2.7482 
    1.6709 	  102.0900 	    3.0000 	   27.0000 	    2.7842 
    1.7624 	  102.1600 	    3.0000 	   27.0000 	    2.8192 
    1.7166 	  102.2300 	    3.0000 	   27.0000 	    2.8542 
    1.7166 	  102.3000 	    3.0000 	   27.0000 	    2.8892 
    1.6403 	  102.3700 	    3.0000 	   27.0000 	    2.9242 
    1.5335 	  102.4400 	    3.0000 	   27.0000 	    2.9592 
    1.8082 	  102.5040 	    3.0000 	   27.0000 	    2.9912 
    1.6403 	  102.5720 	    3.0000 	   27.0000 	    3.0252 
    1.8235 	  102.6480 	    3.0000 	   27.0000 	    3.0632 
    1.7166 	  102.7100 	    3.0000 	   27.0000 	    3.0942 
    1.6709 	  102.7780 	    3.0000 	   27.0000 	    3.1282 
    1.6861 	  102.8400 	    3.0000 	   27.0000 	    3.1592 
    1.5946 	  102.9040 	    3.0000 	   27.0000 	    3.1912 
    1.7014 	  102.9660 	    3.0000 	   27.0000 	    3.2222 
    1.7166 	  103.0280 	    3.0000 	   27.0000 	    3.2533 
    1.8692 	  103.0980 	    3.0000 	   27.0000 	    3.2883 
    1.5946 	  103.1700 	    3.0000 	   27.0000 	    3.3243 
    1.5946 	  103.2420 	    3.0000 	   27.0000 	    3.3603 
    1.7166 	  103.3140 	    3.0000 	   27.0000 	    3.3963 
    1.7929 	  103.3820 	    3.0000 	   27.0000 	    3.4303 
    1.5030 	  103.4520 	    3.0000 	   27.0000 	    3.4653 
    1.5030 	  103.5260 	    3.0000 	   27.0000 	    3.5023 
    1.6098 	  103.6020 	    3.0000 	   27.0000 	    3.5403 
    1.5640 	  103.6760 	    3.0000 	   27.0000 	    3.5773 
    1.5335 	  103.7520 	    3.0000 	   27.0000 	    3.6153 
    1.5335 	  103.8240 	    3.0000 	   27.0000 	    3.6513 
    1.4115 	  103.8960 	    3.0000 	   27.0000 	    3.6873 
    1.6251 	  103.9700 	    3.0000 	   27.0000 	    3.7233 
    1.5488 	  104.0400 	    3.0000 	   27.0000 	    3.7593 
    1.5335 	  104.1160 	    3.0000 	   27.0000 	    3.7973 
    1.3046 	  104.1900 	    3.0000 	   27.0000 	    3.8343 
    1.4725 	  104.2600 	    3.0000 	   27.0000 	    3.8693 
    1.5335 	  104.3420 	    3.0000 	   27.0000 	    3.9103 
    1.4267 	  104.4180 	    3.0000 	   27.0000 	    3.9483 
    1.4420 	  104.4900 	    3.0000 	   27.0000 	    3.9843 
    1.3199 	  104.5560 	    3.0000 	   27.0000 	    4.0173 
    1.5793 	  104.6220 	    3.0000 	   27.0000 	    4.0503 
    1.5183 	  104.6880 	    3.0000 	   27.0000 	    4.0833 
    1.3809 	  104.7540 	    3.0000 	   27.0000 	    4.1163 
    1.4267 	  104.8200 	    3.0000 	   27.0000 	    4.1493 
    1.5335 	  104.8860 	    3.0000 	   27.0000 	    4.1823 
    1.5640 	  104.9480 	    3.0000 	   27.0000 	    4.2133 
    1.5335 	  105.0080 	    3.0000 	   27.0000 	    4.2433 
    1.4267 	  105.0780 	    3.0000 	   27.0000 	    4.2783 
    1.3352 	  105.1580 	    3.0000 	   27.0000 	    4.3183 
    1.3199 	  105.2320 	    3.0000 	   27.0000 	    4.3553 
    1.3199 	  105.3060 	    3.0000 	   27.0000 	    4.3923 
    1.4420 	  105.3820 	    3.0000 	   27.0000 	    4.4303 
    1.3809 	  105.4500 	    3.0000 	   27.0000 	    4.4643 
    1.5030 	  105.5160 	    3.0000 	   27.0000 	    4.4973 
    1.2284 	  105.5840 	    3.0000 	   27.0000 	    4.5313 
    1.5488 	  105.6540 	    3.0000 	   27.0000 	    4.5663 
    1.4115 	  105.7280 	    3.0000 	   27.0000 	    4.6033 
    1.4267 	  105.8020 	    3.0000 	   27.0000 	    4.6403 
    1.3809 	  105.8740 	    3.0000 	   27.0000 	    4.6763 
    0.9537 	  105.9500 	    3.0000 	   27.0000 	    4.7143 
    1.3962 	  106.0180 	    3.0000 	   27.0000 	    4.7483 
    1.3352 	  106.0980 	    3.0000 	   27.0000 	    4.7883 
    1.3504 	  106.1660 	    3.0000 	   27.0000 	    4.8223 
    1.3504 	  106.2360 	    3.0000 	   27.0000 	    4.8573 
    1.5183 	  106.3100 	    3.0000 	   27.0000 	    4.8943 
    1.3199 	  106.3860 	    3.0000 	   27.0000 	    4.9323 
    1.4267 	  106.4560 	    3.0000 	   27.0000 	    4.9673 
    1.2894 	  106.5240 	    3.0000 	   27.0000 	    5.0014 
    1.3046 	  106.6000 	    3.0000 	   27.0000 	    5.0394 
    1.3809 	  106.6660 	    3.0000 	   27.0000 	    5.0724 
    1.2741 	  106.7320 	    3.0000 	   27.0000 	    5.1054 
    1.2436 	  106.7940 	    3.0000 	   27.0000 	    5.1364 
    1.3504 	  106.8580 	    3.0000 	   27.0000 	    5.1684 
    1.2589 	  106.9220 	    3.0000 	   27.0000 	    5.2004 
    1.4267 	  106.9840 	    3.0000 	   27.0000 	    5.2314 
    1.2131 	  107.0480 	    3.0000 	   27.0000 	    5.2634 
    1.2284 	  107.1140 	    3.0000 	   27.0000 	    5.2964 
    1.3962 	  107.1900 	    3.0000 	   27.0000 	    5.3344 
    1.0147 	  107.2620 	    3.0000 	   27.0000 	    5.3704 
    1.1063 	  107.3360 	    3.0000 	   27.0000 	    5.4074 
    1.3504 	  107.4080 	    3.0000 	   27.0000 	    5.4434 
    1.1215 	  107.4820 	    3.0000 	   27.0000 	    5.4804 
    1.3199 	  107.5540 	    3.0000 	   27.0000 	    5.5164 
    1.1673 	  107.6260 	    3.0000 	   27.0000 	    5.5524 
    1.1673 	  107.7080 	    3.0000 	   27.0000 	    5.5934 
    1.1826 	  107.7860 	    3.0000 	   27.0000 	    5.6324 
    1.1673 	  107.8640 	    3.0000 	   27.0000 	    5.6714 
    1.2741 	  107.9360 	    3.0000 	   27.0000 	    5.7074 
    1.2284 	  108.0100 	    3.0000 	   27.0000 	    5.7444 
    1.2131 	  108.0860 	    3.0000 	   27.0000 	    5.7824 
    1.1063 	  108.1600 	    3.0000 	   27.0000 	    5.8194 
    1.2894 	  108.2360 	    3.0000 	   27.0000 	    5.8574 
    1.2284 	  108.3080 	    3.0000 	   27.0000 	    5.8934 
    1.2589 	  108.3820 	    3.0000 	   27.0000 	    5.9304 
    1.1063 	  108.4560 	    3.0000 	   27.0000 	    5.9674 
    1.1521 	  108.5260 	    3.0000 	   27.0000 	    6.0024 
    1.1368 	  108.5920 	    3.0000 	   27.0000 	    6.0354 
    1.1215 	  108.6620 	    3.0000 	   27.0000 	    6.0704 
    1.1063 	  108.7320 	    3.0000 	   27.0000 	    6.1054 
    1.0452 	  108.7960 	    3.0000 	   27.0000 	    6.1374 
    1.1215 	  108.8640 	    3.0000 	   27.0000 	    6.1714 
    1.1368 	  108.9280 	    3.0000 	   27.0000 	    6.2034 
    1.1521 	  108.9900 	    3.0000 	   27.0000 	    6.2344 
    0.9689 	  109.0540 	    3.0000 	   27.0000 	    6.2664 
    1.0910 	  109.1180 	    3.0000 	   27.0000 	    6.2984 
    1.1826 	  109.1820 	    3.0000 	   27.0000 	    6.3304 
    1.0605 	  109.2460 	    3.0000 	   27.0000 	    6.3624 
    1.0147 	  109.3120 	    3.0000 	   27.0000 	    6.3954 
    0.9995 	  109.3840 	    3.0000 	   27.0000 	    6.4314 
    1.1063 	  109.4560 	    3.0000 	   27.0000 	    6.4674 
    1.1063 	  109.5300 	    3.0000 	   27.0000 	    6.5044 
    1.0910 	  109.6020 	    3.0000 	   27.0000 	    6.5404 
    1.1826 	  109.6720 	    3.0000 	   27.0000 	    6.5754 
    1.1063 	  109.7480 	    3.0000 	   27.0000 	    6.6134 
    0.9995 	  109.8240 	    3.0000 	   27.0000 	    6.6514 
    1.1063 	  109.8960 	    3.0000 	   27.0000 	    6.6874 
    1.0452 	  109.9700 	    3.0000 	   27.0000 	    6.7244 
    0.9842 	  110.0460 	    3.0000 	   27.0000 	    6.7625 
    1.1063 	  110.1200 	    3.0000 	   27.0000 	    6.7995 
    0.9995 	  110.2020 	    3.0000 	   27.0000 	    6.8405 
    0.8011 	  110.2760 	    3.0000 	   27.0000 	    6.8775 
    1.0300 	  110.3520 	    3.0000 	   27.0000 	    6.9155 
    0.9689 	  110.4220 	    3.0000 	   27.0000 	    6.9505 
    1.0758 	  110.4980 	    3.0000 	   27.0000 	    6.9885 
    0.9995 	  110.5620 	    3.0000 	   27.0000 	    7.0205 
    0.9842 	  110.6280 	    3.0000 	   27.0000 	    7.0535 
    0.9232 	  110.6960 	    3.0000 	   27.0000 	    7.0875 
    1.0147 	  110.7640 	    3.0000 	   27.0000 	    7.1215 
    1.0147 	  110.8280 	    3.0000 	   27.0000 	    7.1535 
    0.7706 	  110.8920 	    3.0000 	   27.0000 	    7.1855 
    1.0147 	  110.9560 	    3.0000 	   27.0000 	    7.2175 
    0.7401 	  111.0260 	    3.0000 	   27.0000 	    7.2525 
    1.1063 	  111.0940 	    3.0000 	   27.0000 	    7.2865 
    0.9079 	  111.1620 	    3.0000 	   27.0000 	    7.3205 
    0.9689 	  111.2300 	    3.0000 	   27.0000 	    7.3545 
    0.8774 	  111.3000 	    3.0000 	   27.0000 	    7.3895 
    0.9995 	  111.3640 	    3.0000 	   27.0000 	    7.4215 
    0.8927 	  111.4300 	    3.0000 	   27.0000 	    7.4545 
    0.8469 	  111.4980 	    3.0000 	   27.0000 	    7.4885 
    0.9079 	  111.5620 	    3.0000 	   27.0000 	    7.5205 
    0.7095 	  111.6280 	    3.0000 	   27.0000 	    7.5535 
    0.8927 	  111.6960 	    3.0000 	   27.0000 	    7.5875 
    0.8164 	  111.7600 	    3.0000 	   27.0000 	    7.6195 
    0.9079 	  111.8240 	    3.0000 	   27.0000 	    7.6515 
    0.5417 	  111.8880 	    3.0000 	   27.0000 	    7.6835 
    0.7553 	  111.9620 	    3.0000 	   27.0000 	    7.7205 
    0.7553 	  112.0440 	    3.0000 	   27.0000 	    7.7615 
    0.8316 	  112.1140 	    3.0000 	   27.0000 	    7.7965 
    0.6485 	  112.1900 	    3.0000 	   27.0000 	    7.8345 
    0.8011 	  112.2560 	    3.0000 	   27.0000 	    7.8675 
    0.6638 	  112.3280 	    3.0000 	   27.0000 	    7.9035 
    0.6485 	  112.4000 	    3.0000 	   27.0000 	    7.9395 
    0.7553 	  112.4720 	    3.0000 	   27.0000 	    7.9755 
    0.8621 	  112.5460 	    3.0000 	   27.0000 	    8.0125 
    0.6943 	  112.6160 	    3.0000 	   27.0000 	    8.0475 
    0.6790 	  112.6940 	    3.0000 	   27.0000 	    8.0865 
    0.8316 	  112.7620 	    3.0000 	   27.0000 	    8.1205 
    0.6638 	  112.8260 	    3.0000 	   27.0000 	    8.1525 
    0.6485 	  112.8920 	    3.0000 	   27.0000 	    8.1855 
    0.7248 	  112.9560 	    3.0000 	   27.0000 	    8.2175 
    0.8621 	  113.0180 	    3.0000 	   27.0000 	    8.2485 
    0.6485 	  113.0840 	    3.0000 	   27.0000 	    8.2815 
    0.6943 	  113.1560 	    3.0000 	   27.0000 	    8.3175 
    0.3891 	  113.2200 	    3.0000 	   27.0000 	    8.3495 
    0.7553 	  113.2920 	    3.0000 	   27.0000 	    8.3855 
    0.6943 	  113.3680 	    3.0000 	   27.0000 	    8.4235 
    0.6638 	  113.4320 	    3.0000 	   27.0000 	    8.4555 
    0.6638 	  113.4960 	    3.0000 	   27.0000 	    8.4875 
    0.5570 	  113.5700 	    3.0000 	   27.0000 	    8.5246 
    0.5570 	  113.6420 	    3.0000 	   27.0000 	    8.5606 
    0.6638 	  113.7180 	    3.0000 	   27.0000 	    8.5986 
    0.5570 	  113.7940 	    3.0000 	   27.0000 	    8.6366 
    0.5112 	  113.8620 	    3.0000 	   27.0000 	    8.6706 
    0.6332 	  113.9340 	    3.0000 	   27.0000 	    8.7066 
    0.6027 	  114.0040 	    3.0000 	   27.0000 	    8.7416 
    0.5417 	  114.0800 	    3.0000 	   27.0000 	    8.7796 
    0.6027 	  114.1560 	    3.0000 	   27.0000 	    8.8176 
    0.6485 	  114.2280 	    3.0000 	   27.0000 	    8.8536 
    0.4196 	  114.3040 	    3.0000 	   27.0000 	    8.8916 
    0.4196 	  114.3760 	    3.0000 	   27.0000 	    8.9276 
    0.5112 	  114.4520 	    3.0000 	   27.0000 	    8.9656 
    0.6180 	  114.5220 	    3.0000 	   27.0000 	    9.0006 
    0.5264 	  114.5920 	    3.0000 	   27.0000 	    9.0356 
    0.4654 	  114.6600 	    3.0000 	   27.0000 	    9.0696 
    0.5264 	  114.7280 	    3.0000 	   27.0000 	    9.1036 
    0.5417 	  114.8000 	    3.0000 	   27.0000 	    9.1396 
    0.5112 	  114.8660 	    3.0000 	   27.0000 	    9.1726 
    0.4959 	  114.9320 	    3.0000 	   27.0000 	    9.2056 
    0.3891 	  114.9940 	    3.0000 	   27.0000 	    9.2366 
    0.5875 	  115.0580 	    3.0000 	   27.0000 	    9.2686 
    0.3891 	  115.1320 	    3.0000 	   27.0000 	    9.3056 
    0.3738 	  115.2080 	    3.0000 	   27.0000 	    9.3436 
    0.4654 	  115.2760 	    3.0000 	   27.0000 	    9.3776 
    0.4044 	  115.3420 	    3.0000 	   27.0000 	    9.4106 
    0.2365 	  115.4160 	    3.0000 	   27.0000 	    9.4476 
    0.3738 	  115.4800 	    3.0000 	   27.0000 	    9.4796 
    0.3891 	  115.5520 	    3.0000 	   27.0000 	    9.5156 
    0.4044 	  115.6180 	    3.0000 	   27.0000 	    9.5486 
    0.3738 	  115.6800 	    3.0000 	   27.0000 	    9.5796 
    0.3128 	  115.7520 	    3.0000 	   27.0000 	    9.6156 
    0.4349 	  115.8280 	    3.0000 	   27.0000 	    9.6536 
    0.4196 	  115.8980 	    3.0000 	   27.0000 	    9.6886 
    0.5264 	  115.9700 	    3.0000 	   27.0000 	    9.7246 
    0.5570 	  116.0440 	    3.0000 	   27.0000 	    9.7616 
    0.3586 	  116.1160 	    3.0000 	   27.0000 	    9.7976 
    0.3738 	  116.1860 	    3.0000 	   27.0000 	    9.8326 
    0.3586 	  116.2520 	    3.0000 	   27.0000 	    9.8656 
    0.4501 	  116.3200 	    3.0000 	   27.0000 	    9.8996 
    0.2365 	  116.3920 	    3.0000 	   27.0000 	    9.9356 
    0.3738 	  116.4580 	    3.0000 	   27.0000 	    9.9686 
    0.3128 	  116.5240 	    3.0000 	   27.0000 	   10.0016 
    0.4654 	  116.5900 	    3.0000 	   27.0000 	   10.0346 
    0.3738 	  116.6640 	    3.0000 	   27.0000 	   10.0716 
    0.2823 	  116.7380 	    3.0000 	   27.0000 	   10.1086 
    0.4807 	  116.8100 	    3.0000 	   27.0000 	   10.1446 
    0.4501 	  116.8760 	    3.0000 	   27.0000 	   10.1776 
    0.4959 	  116.9420 	    3.0000 	   27.0000 	   10.2106 
    0.3433 	  117.0060 	    3.0000 	   27.0000 	   10.2427 
    0.3128 	  117.0760 	    3.0000 	   27.0000 	   10.2777 
    0.3586 	  117.1520 	    3.0000 	   27.0000 	   10.3157 
    0.3281 	  117.2260 	    3.0000 	   27.0000 	   10.3527 
    0.3128 	  117.2980 	    3.0000 	   27.0000 	   10.3887 
    0.3281 	  117.3700 	    3.0000 	   27.0000 	   10.4247 
    0.3586 	  117.4480 	    3.0000 	   27.0000 	   10.4637 
    0.3281 	  117.5260 	    3.0000 	   27.0000 	   10.5027 
    0.2670 	  117.5940 	    3.0000 	   27.0000 	   10.5367 
    0.3891 	  117.6720 	    3.0000 	   27.0000 	   10.5757 
    0.3891 	  117.7460 	    3.0000 	   27.0000 	   10.6127 
    0.3738 	  117.8240 	    3.0000 	   27.0000 	   10.6517 
    0.2518 	  117.8960 	    3.0000 	   27.0000 	   10.6877 
    0.3891 	  117.9740 	    3.0000 	   27.0000 	   10.7267 
    0.1297 	  118.0480 	    3.0000 	   27.0000 	   10.7637 
    0.4654 	  118.1260 	    3.0000 	   27.0000 	   10.8027 
    0.3128 	  118.2080 	    3.0000 	   27.0000 	   10.8437 
    0.3281 	  118.2840 	    3.0000 	   27.0000 	   10.8817 
    0.3128 	  118.3580 	    3.0000 	   27.0000 	   10.9187 
    0.2365 	  118.4340 	    3.0000 	   27.0000 	   10.9567 
    0.3128 	  118.5080 	    3.0000 	   27.0000 	   10.9937 
    0.1144 	  118.5780 	    3.0000 	   27.0000 	   11.0287 
    0.5264 	  118.6560 	    3.0000 	   27.0000 	   11.0677 
    0.2060 	  118.7300 	    3.0000 	   27.0000 	   11.1047 
    0.2670 	  118.8040 	    3.0000 	   27.0000 	   11.1417 
    0.2213 	  118.8740 	    3.0000 	   27.0000 	   11.1767 
    0.2670 	  118.9420 	    3.0000 	   27.0000 	   11.2107 
    0.1450 	  119.0040 	    3.0000 	   27.0000 	   11.2417 
    0.2823 	  119.0660 	    3.0000 	   27.0000 	   11.2727 
    0.4044 	  119.1360 	    3.0000 	   27.0000 	   11.3077 
    0.3128 	  119.2100 	    3.0000 	   27.0000 	   11.3447 
    0.3128 	  119.2840 	    3.0000 	   27.0000 	   11.3817 
    0.3738 	  119.3580 	    3.0000 	   27.0000 	   11.4187 
    0.1755 	  119.4360 	    3.0000 	   27.0000 	   11.4577 
    0.3281 	  119.5100 	    3.0000 	   27.0000 	   11.4947 
    0.3128 	  119.5840 	    3.0000 	   27.0000 	   11.5317 
    0.2976 	  119.6760 	    3.0000 	   27.0000 	   11.5777 
    0.2670 	  119.7520 	    3.0000 	   27.0000 	   11.6157 
    0.3281 	  119.8260 	    3.0000 	   27.0000 	   11.6527 
    0.2670 	  119.8980 	    3.0000 	   27.0000 	   11.6887 
    0.2823 	  119.9720 	    3.0000 	   27.0000 	   11.7257 
    0.3586 	  120.0460 	    3.0000 	   27.0000 	   11.7627 
    0.3433 	  120.1180 	    3.0000 	   27.0000 	   11.7987 
    0.2670 	  120.2000 	    3.0000 	   27.0000 	   11.8397 
    0.3128 	  120.2720 	    3.0000 	   27.0000 	   11.8757 
    0.3433 	  120.3460 	    3.0000 	   27.0000 	   11.9127 
    0.3433 	  120.4200 	    3.0000 	   27.0000 	   11.9497 
    0.3281 	  120.4940 	    3.0000 	   27.0000 	   11.9867 
    0.5417 	  120.5640 	    3.0000 	   27.0000 	   12.0218 
    0.4501 	  120.6320 	    3.0000 	   27.0000 	   12.0558 
    0.2976 	  120.7000 	    3.0000 	   27.0000 	   12.0898 
    0.4044 	  120.7700 	    3.0000 	   27.0000 	   12.1248 
    0.2823 	  120.8400 	    3.0000 	   27.0000 	   12.1598 
    0.4044 	  120.9080 	    3.0000 	   27.0000 	   12.1938 
    0.4501 	  120.9740 	    3.0000 	   27.0000 	   12.2268 
    0.4959 	  121.0360 	    3.0000 	   27.0000 	   12.2578 
