Thayer School of Engineering        Instron 4442 Mechanical Testing System
7/9/2018 3:19:53 AM

  Force (N)	Extension (mm)	Not Used	Not Used	Not Used	     Hour	    Minute	    Second
    1.3809 	    2.0380 	    3.0000 	   20.0000 	   21.6203 
    1.4115 	    2.1000 	    3.0000 	   20.0000 	   21.6513 
    1.3962 	    2.2380 	    3.0000 	   20.0000 	   21.7203 
    1.4725 	    2.3060 	    3.0000 	   20.0000 	   21.7543 
    1.5030 	    2.3780 	    3.0000 	   20.0000 	   21.7903 
    1.3657 	    2.4960 	    3.0000 	   20.0000 	   21.8493 
    1.1368 	    2.5620 	    3.0000 	   20.0000 	   21.8823 
    1.3657 	    2.6780 	    3.0000 	   20.0000 	   21.9403 
    1.4572 	    2.7860 	    3.0000 	   20.0000 	   21.9943 
    1.3199 	    2.8900 	    3.0000 	   20.0000 	   22.0463 
    1.4878 	    2.9980 	    3.0000 	   20.0000 	   22.1003 
    1.4572 	    3.1020 	    3.0000 	   20.0000 	   22.1523 
    1.3046 	    3.2080 	    3.0000 	   20.0000 	   22.2053 
    1.4878 	    3.2660 	    3.0000 	   20.0000 	   22.2343 
    1.3657 	    3.3720 	    3.0000 	   20.0000 	   22.2873 
    1.5640 	    3.4720 	    3.0000 	   20.0000 	   22.3373 
    1.4115 	    3.5760 	    3.0000 	   20.0000 	   22.3893 
    1.6251 	    3.6820 	    3.0000 	   20.0000 	   22.4423 
    1.5335 	    3.7800 	    3.0000 	   20.0000 	   22.4913 
    1.5946 	    3.8840 	    3.0000 	   20.0000 	   22.5433 
    1.6556 	    3.9880 	    3.0000 	   20.0000 	   22.5953 
    1.5488 	    4.0920 	    3.0000 	   20.0000 	   22.6473 
    1.4725 	    4.1960 	    3.0000 	   20.0000 	   22.6993 
    1.5793 	    4.2980 	    3.0000 	   20.0000 	   22.7503 
    1.6251 	    4.3960 	    3.0000 	   20.0000 	   22.7993 
    1.5793 	    4.4960 	    3.0000 	   20.0000 	   22.8493 
    1.6251 	    4.5560 	    3.0000 	   20.0000 	   22.8794 
    1.6403 	    4.6140 	    3.0000 	   20.0000 	   22.9084 
    1.6403 	    4.6720 	    3.0000 	   20.0000 	   22.9374 
    1.5640 	    4.7820 	    3.0000 	   20.0000 	   22.9924 
    1.5640 	    4.8420 	    3.0000 	   20.0000 	   23.0224 
    1.7166 	    4.9560 	    3.0000 	   20.0000 	   23.0794 
    1.7166 	    5.0160 	    3.0000 	   20.0000 	   23.1094 
    1.8387 	    5.1320 	    3.0000 	   20.0000 	   23.1674 
    1.5640 	    5.1920 	    3.0000 	   20.0000 	   23.1974 
    1.6403 	    5.3040 	    3.0000 	   20.0000 	   23.2534 
    1.6861 	    5.4020 	    3.0000 	   20.0000 	   23.3024 
    1.6861 	    5.5000 	    3.0000 	   20.0000 	   23.3514 
    1.8692 	    5.6140 	    3.0000 	   20.0000 	   23.4084 
    1.7777 	    5.6780 	    3.0000 	   20.0000 	   23.4404 
    1.7624 	    5.7940 	    3.0000 	   20.0000 	   23.4984 
    1.7777 	    5.9080 	    3.0000 	   20.0000 	   23.5554 
    1.8082 	    5.9760 	    3.0000 	   20.0000 	   23.5894 
    1.8235 	    6.0380 	    3.0000 	   20.0000 	   23.6204 
    1.8082 	    6.1540 	    3.0000 	   20.0000 	   23.6784 
    1.8997 	    6.2720 	    3.0000 	   20.0000 	   23.7374 
    1.9455 	    6.3380 	    3.0000 	   20.0000 	   23.7704 
    1.7624 	    6.4000 	    3.0000 	   20.0000 	   23.8014 
    1.7929 	    6.5120 	    3.0000 	   20.0000 	   23.8574 
    1.9150 	    6.6140 	    3.0000 	   20.0000 	   23.9084 
    2.0066 	    6.6700 	    3.0000 	   20.0000 	   23.9364 
    1.8387 	    6.7260 	    3.0000 	   20.0000 	   23.9644 
    2.0371 	    6.8340 	    3.0000 	   20.0000 	   24.0184 
    1.8387 	    6.8940 	    3.0000 	   20.0000 	   24.0484 
    1.8997 	    6.9540 	    3.0000 	   20.0000 	   24.0784 
    1.8387 	    7.0140 	    3.0000 	   20.0000 	   24.1084 
    1.8997 	    7.0740 	    3.0000 	   20.0000 	   24.1374 
    1.7166 	    7.1320 	    3.0000 	   20.0000 	   24.1674 
    1.9455 	    7.1900 	    3.0000 	   20.0000 	   24.1964 
    1.8082 	    7.2480 	    3.0000 	   20.0000 	   24.2254 
    2.1134 	    7.3040 	    3.0000 	   20.0000 	   24.2534 
    1.7472 	    7.3560 	    3.0000 	   20.0000 	   24.2794 
    1.8692 	    7.4620 	    3.0000 	   20.0000 	   24.3324 
    1.6861 	    7.5200 	    3.0000 	   20.0000 	   24.3614 
    2.0676 	    7.5740 	    3.0000 	   20.0000 	   24.3884 
    2.0066 	    7.6900 	    3.0000 	   20.0000 	   24.4464 
    2.0218 	    7.7500 	    3.0000 	   20.0000 	   24.4764 
    1.9913 	    7.8040 	    3.0000 	   20.0000 	   24.5034 
    2.1134 	    7.8640 	    3.0000 	   20.0000 	   24.5334 
    1.8845 	    7.9300 	    3.0000 	   20.0000 	   24.5664 
    2.0218 	    7.9940 	    3.0000 	   20.0000 	   24.5984 
    2.0371 	    8.0580 	    3.0000 	   20.0000 	   24.6294 
    2.1134 	    8.1220 	    3.0000 	   20.0000 	   24.6625 
    2.0218 	    8.1920 	    3.0000 	   20.0000 	   24.6975 
    2.0676 	    8.2560 	    3.0000 	   20.0000 	   24.7295 
    2.2049 	    8.3220 	    3.0000 	   20.0000 	   24.7625 
    2.1592 	    8.3860 	    3.0000 	   20.0000 	   24.7945 
    1.9303 	    8.5040 	    3.0000 	   20.0000 	   24.8535 
    2.0829 	    8.5580 	    3.0000 	   20.0000 	   24.8805 
    2.1134 	    8.6220 	    3.0000 	   20.0000 	   24.9125 
    2.1744 	    8.6800 	    3.0000 	   20.0000 	   24.9415 
    2.1897 	    8.7420 	    3.0000 	   20.0000 	   24.9725 
    2.2812 	    8.8020 	    3.0000 	   20.0000 	   25.0025 
    2.0829 	    8.8660 	    3.0000 	   20.0000 	   25.0345 
    2.0523 	    8.9300 	    3.0000 	   20.0000 	   25.0665 
    2.1134 	    8.9840 	    3.0000 	   20.0000 	   25.0935 
    2.1439 	    9.0420 	    3.0000 	   20.0000 	   25.1225 
    2.1286 	    9.0920 	    3.0000 	   20.0000 	   25.1475 
    2.2202 	    9.1500 	    3.0000 	   20.0000 	   25.1765 
    2.1439 	    9.2020 	    3.0000 	   20.0000 	   25.2025 
    2.2354 	    9.2580 	    3.0000 	   20.0000 	   25.2305 
    2.1897 	    9.3160 	    3.0000 	   20.0000 	   25.2595 
    2.1897 	    9.3640 	    3.0000 	   20.0000 	   25.2835 
    2.2660 	    9.4200 	    3.0000 	   20.0000 	   25.3115 
    2.2507 	    9.4740 	    3.0000 	   20.0000 	   25.3385 
    2.1439 	    9.5380 	    3.0000 	   20.0000 	   25.3705 
    2.2049 	    9.5980 	    3.0000 	   20.0000 	   25.4005 
    2.1744 	    9.6660 	    3.0000 	   20.0000 	   25.4345 
    2.3880 	    9.7260 	    3.0000 	   20.0000 	   25.4645 
    2.2965 	    9.7920 	    3.0000 	   20.0000 	   25.4975 
    2.1744 	    9.9080 	    3.0000 	   20.0000 	   25.5555 
    2.3270 	    9.9680 	    3.0000 	   20.0000 	   25.5855 
    1.9150 	   10.0360 	    3.0000 	   20.0000 	   25.6195 
    2.3270 	   10.0900 	    3.0000 	   20.0000 	   25.6465 
    2.1744 	   10.1500 	    3.0000 	   20.0000 	   25.6765 
    2.3423 	   10.2080 	    3.0000 	   20.0000 	   25.7055 
    2.2660 	   10.2760 	    3.0000 	   20.0000 	   25.7395 
    2.2965 	   10.3400 	    3.0000 	   20.0000 	   25.7715 
    2.2507 	   10.4000 	    3.0000 	   20.0000 	   25.8015 
    2.3880 	   10.4580 	    3.0000 	   20.0000 	   25.8305 
    2.4033 	   10.5240 	    3.0000 	   20.0000 	   25.8635 
    2.1286 	   10.5860 	    3.0000 	   20.0000 	   25.8945 
    2.4491 	   10.7040 	    3.0000 	   20.0000 	   25.9535 
    2.3423 	   10.7640 	    3.0000 	   20.0000 	   25.9835 
    2.3880 	   10.8280 	    3.0000 	   20.0000 	   26.0155 
    2.3880 	   10.8880 	    3.0000 	   20.0000 	   26.0455 
    2.3423 	   10.9500 	    3.0000 	   20.0000 	   26.0765 
    2.5101 	   11.0040 	    3.0000 	   20.0000 	   26.1035 
    2.3575 	   11.0580 	    3.0000 	   20.0000 	   26.1305 
    2.5254 	   11.1760 	    3.0000 	   20.0000 	   26.1895 
    2.2507 	   11.2260 	    3.0000 	   20.0000 	   26.2145 
    2.3728 	   11.2780 	    3.0000 	   20.0000 	   26.2405 
    2.5101 	   11.3340 	    3.0000 	   20.0000 	   26.2685 
    2.3575 	   11.3840 	    3.0000 	   20.0000 	   26.2935 
    2.4033 	   11.4320 	    3.0000 	   20.0000 	   26.3175 
    2.5101 	   11.4860 	    3.0000 	   20.0000 	   26.3445 
    2.4796 	   11.5480 	    3.0000 	   20.0000 	   26.3755 
    2.6474 	   11.6060 	    3.0000 	   20.0000 	   26.4046 
    2.3728 	   11.6680 	    3.0000 	   20.0000 	   26.4356 
    2.4491 	   11.7920 	    3.0000 	   20.0000 	   26.4976 
    2.5101 	   11.8480 	    3.0000 	   20.0000 	   26.5256 
    2.4186 	   11.9080 	    3.0000 	   20.0000 	   26.5556 
    2.2812 	   11.9760 	    3.0000 	   20.0000 	   26.5896 
    2.3575 	   12.0320 	    3.0000 	   20.0000 	   26.6176 
    2.4033 	   12.0920 	    3.0000 	   20.0000 	   26.6476 
    2.4948 	   12.1560 	    3.0000 	   20.0000 	   26.6796 
    2.5864 	   12.2120 	    3.0000 	   20.0000 	   26.7076 
    2.5711 	   12.2740 	    3.0000 	   20.0000 	   26.7386 
    2.4186 	   12.3420 	    3.0000 	   20.0000 	   26.7726 
    2.5101 	   12.4060 	    3.0000 	   20.0000 	   26.8046 
    2.6932 	   12.4700 	    3.0000 	   20.0000 	   26.8366 
    2.5254 	   12.5340 	    3.0000 	   20.0000 	   26.8686 
    2.7085 	   12.5900 	    3.0000 	   20.0000 	   26.8966 
    2.5864 	   12.6480 	    3.0000 	   20.0000 	   26.9256 
    2.5406 	   12.7120 	    3.0000 	   20.0000 	   26.9576 
    2.5254 	   12.7780 	    3.0000 	   20.0000 	   26.9906 
    2.4491 	   12.8400 	    3.0000 	   20.0000 	   27.0216 
    2.4338 	   12.9040 	    3.0000 	   20.0000 	   27.0536 
    2.4186 	   12.9660 	    3.0000 	   20.0000 	   27.0846 
    2.5101 	   13.0220 	    3.0000 	   20.0000 	   27.1126 
    2.5711 	   13.0780 	    3.0000 	   20.0000 	   27.1406 
    2.7848 	   13.1360 	    3.0000 	   20.0000 	   27.1696 
    2.6169 	   13.1900 	    3.0000 	   20.0000 	   27.1966 
    2.7237 	   13.2400 	    3.0000 	   20.0000 	   27.2216 
    2.5864 	   13.2920 	    3.0000 	   20.0000 	   27.2476 
    2.6627 	   13.3500 	    3.0000 	   20.0000 	   27.2766 
    2.5559 	   13.3980 	    3.0000 	   20.0000 	   27.3006 
    2.6780 	   13.4520 	    3.0000 	   20.0000 	   27.3276 
    2.6627 	   13.5120 	    3.0000 	   20.0000 	   27.3576 
    2.5559 	   13.5800 	    3.0000 	   20.0000 	   27.3916 
    2.5711 	   13.6440 	    3.0000 	   20.0000 	   27.4236 
    2.6932 	   13.7040 	    3.0000 	   20.0000 	   27.4536 
    2.5559 	   13.7700 	    3.0000 	   20.0000 	   27.4866 
    2.6627 	   13.8380 	    3.0000 	   20.0000 	   27.5206 
    2.4186 	   13.8940 	    3.0000 	   20.0000 	   27.5486 
    2.6932 	   13.9620 	    3.0000 	   20.0000 	   27.5826 
    2.5101 	   14.0200 	    3.0000 	   20.0000 	   27.6116 
    2.7543 	   14.0800 	    3.0000 	   20.0000 	   27.6416 
    2.6017 	   14.1460 	    3.0000 	   20.0000 	   27.6746 
    2.7237 	   14.2080 	    3.0000 	   20.0000 	   27.7056 
    2.8305 	   14.2720 	    3.0000 	   20.0000 	   27.7376 
    2.6627 	   14.3420 	    3.0000 	   20.0000 	   27.7726 
    2.9221 	   14.4060 	    3.0000 	   20.0000 	   27.8046 
    2.7390 	   14.4680 	    3.0000 	   20.0000 	   27.8356 
    2.7695 	   14.5900 	    3.0000 	   20.0000 	   27.8966 
    2.6474 	   14.6520 	    3.0000 	   20.0000 	   27.9276 
    2.7848 	   14.7200 	    3.0000 	   20.0000 	   27.9616 
    2.8153 	   14.7900 	    3.0000 	   20.0000 	   27.9966 
    2.7543 	   14.8520 	    3.0000 	   20.0000 	   28.0276 
    2.6932 	   14.9180 	    3.0000 	   20.0000 	   28.0606 
    2.8763 	   14.9840 	    3.0000 	   20.0000 	   28.0936 
    2.7848 	   15.0380 	    3.0000 	   20.0000 	   28.1207 
    2.8305 	   15.0940 	    3.0000 	   20.0000 	   28.1487 
    2.7543 	   15.1560 	    3.0000 	   20.0000 	   28.1797 
    2.8153 	   15.2100 	    3.0000 	   20.0000 	   28.2067 
    2.7390 	   15.2620 	    3.0000 	   20.0000 	   28.2327 
    2.8458 	   15.3220 	    3.0000 	   20.0000 	   28.2627 
    2.9374 	   15.3720 	    3.0000 	   20.0000 	   28.2877 
    2.4491 	   15.4220 	    3.0000 	   20.0000 	   28.3127 
    2.8458 	   15.4720 	    3.0000 	   20.0000 	   28.3377 
    2.7543 	   15.5380 	    3.0000 	   20.0000 	   28.3707 
    2.9221 	   15.6000 	    3.0000 	   20.0000 	   28.4017 
    2.7848 	   15.6620 	    3.0000 	   20.0000 	   28.4327 
    2.9984 	   15.7320 	    3.0000 	   20.0000 	   28.4677 
    2.8458 	   15.7880 	    3.0000 	   20.0000 	   28.4957 
    2.7390 	   15.8500 	    3.0000 	   20.0000 	   28.5257 
    2.8611 	   15.9080 	    3.0000 	   20.0000 	   28.5557 
    2.8305 	   15.9800 	    3.0000 	   20.0000 	   28.5917 
    2.7848 	   16.0380 	    3.0000 	   20.0000 	   28.6207 
    2.8916 	   16.1040 	    3.0000 	   20.0000 	   28.6537 
    2.9221 	   16.1720 	    3.0000 	   20.0000 	   28.6877 
    2.9679 	   16.2320 	    3.0000 	   20.0000 	   28.7177 
    2.8153 	   16.2920 	    3.0000 	   20.0000 	   28.7477 
    2.9831 	   16.3600 	    3.0000 	   20.0000 	   28.7817 
    2.9374 	   16.4240 	    3.0000 	   20.0000 	   28.8137 
    2.7543 	   16.4840 	    3.0000 	   20.0000 	   28.8437 
    3.0442 	   16.5520 	    3.0000 	   20.0000 	   28.8777 
    3.0289 	   16.6100 	    3.0000 	   20.0000 	   28.9067 
    2.7848 	   16.6780 	    3.0000 	   20.0000 	   28.9407 
    2.9831 	   16.7440 	    3.0000 	   20.0000 	   28.9737 
    2.9679 	   16.8100 	    3.0000 	   20.0000 	   29.0067 
    3.0289 	   16.8740 	    3.0000 	   20.0000 	   29.0387 
    2.9068 	   16.9460 	    3.0000 	   20.0000 	   29.0747 
    2.9831 	   17.0000 	    3.0000 	   20.0000 	   29.1017 
    3.1205 	   17.0560 	    3.0000 	   20.0000 	   29.1297 
    3.0289 	   17.1100 	    3.0000 	   20.0000 	   29.1567 
    3.0137 	   17.2360 	    3.0000 	   20.0000 	   29.2197 
    3.0289 	   17.2900 	    3.0000 	   20.0000 	   29.2467 
    3.0900 	   17.3400 	    3.0000 	   20.0000 	   29.2717 
    2.9374 	   17.4020 	    3.0000 	   20.0000 	   29.3027 
    2.9984 	   17.4520 	    3.0000 	   20.0000 	   29.3277 
    2.9984 	   17.5120 	    3.0000 	   20.0000 	   29.3577 
    3.0137 	   17.5740 	    3.0000 	   20.0000 	   29.3887 
    3.0289 	   17.6420 	    3.0000 	   20.0000 	   29.4227 
    3.1205 	   17.7100 	    3.0000 	   20.0000 	   29.4567 
    3.1052 	   17.7760 	    3.0000 	   20.0000 	   29.4897 
    2.6932 	   17.8300 	    3.0000 	   20.0000 	   29.5167 
    3.0594 	   17.9020 	    3.0000 	   20.0000 	   29.5527 
    3.2120 	   17.9620 	    3.0000 	   20.0000 	   29.5827 
    3.1815 	   18.0200 	    3.0000 	   20.0000 	   29.6107 
    3.0594 	   18.0860 	    3.0000 	   20.0000 	   29.6447 
    3.3188 	   18.1580 	    3.0000 	   20.0000 	   29.6807 
    3.1815 	   18.2180 	    3.0000 	   20.0000 	   29.7107 
    3.2883 	   18.2840 	    3.0000 	   20.0000 	   29.7437 
    3.0747 	   18.3480 	    3.0000 	   20.0000 	   29.7757 
    3.1968 	   18.4100 	    3.0000 	   20.0000 	   29.8067 
    3.1205 	   18.4620 	    3.0000 	   20.0000 	   29.8327 
    3.2578 	   18.5180 	    3.0000 	   20.0000 	   29.8608 
    3.1815 	   18.5780 	    3.0000 	   20.0000 	   29.8908 
    3.0900 	   18.6460 	    3.0000 	   20.0000 	   29.9248 
    3.1815 	   18.7060 	    3.0000 	   20.0000 	   29.9548 
    3.3951 	   18.7700 	    3.0000 	   20.0000 	   29.9868 
    3.2883 	   18.8340 	    3.0000 	   20.0000 	   30.0188 
    3.3646 	   18.9020 	    3.0000 	   20.0000 	   30.0528 
    3.3646 	   18.9620 	    3.0000 	   20.0000 	   30.0828 
    3.2883 	   19.0160 	    3.0000 	   20.0000 	   30.1098 
    3.2578 	   19.0720 	    3.0000 	   20.0000 	   30.1378 
    3.3036 	   19.1380 	    3.0000 	   20.0000 	   30.1708 
    3.1510 	   19.1940 	    3.0000 	   20.0000 	   30.1988 
    3.2731 	   19.2480 	    3.0000 	   20.0000 	   30.2258 
    3.4104 	   19.3000 	    3.0000 	   20.0000 	   30.2518 
    3.2273 	   19.3540 	    3.0000 	   20.0000 	   30.2788 
    3.3188 	   19.4700 	    3.0000 	   20.0000 	   30.3368 
    3.2578 	   19.5200 	    3.0000 	   20.0000 	   30.3618 
    3.4257 	   19.5740 	    3.0000 	   20.0000 	   30.3888 
    3.2883 	   19.6460 	    3.0000 	   20.0000 	   30.4248 
    3.3036 	   19.7080 	    3.0000 	   20.0000 	   30.4558 
    3.2578 	   19.7680 	    3.0000 	   20.0000 	   30.4858 
    3.2883 	   19.8280 	    3.0000 	   20.0000 	   30.5158 
    3.3494 	   19.8940 	    3.0000 	   20.0000 	   30.5488 
    3.4867 	   19.9560 	    3.0000 	   20.0000 	   30.5798 
    3.3036 	   20.0160 	    3.0000 	   20.0000 	   30.6098 
    3.2578 	   20.0760 	    3.0000 	   20.0000 	   30.6398 
    3.3646 	   20.1440 	    3.0000 	   20.0000 	   30.6728 
    3.5019 	   20.2020 	    3.0000 	   20.0000 	   30.7028 
    3.5019 	   20.2600 	    3.0000 	   20.0000 	   30.7318 
    3.3646 	   20.3280 	    3.0000 	   20.0000 	   30.7658 
    3.5630 	   20.3920 	    3.0000 	   20.0000 	   30.7978 
    3.4409 	   20.4500 	    3.0000 	   20.0000 	   30.8268 
    3.3646 	   20.5100 	    3.0000 	   20.0000 	   30.8568 
    3.2883 	   20.5740 	    3.0000 	   20.0000 	   30.8888 
    3.4562 	   20.6480 	    3.0000 	   20.0000 	   30.9258 
    3.3341 	   20.7060 	    3.0000 	   20.0000 	   30.9548 
    3.3799 	   20.7680 	    3.0000 	   20.0000 	   30.9858 
    3.5172 	   20.8280 	    3.0000 	   20.0000 	   31.0158 
    3.6088 	   20.8980 	    3.0000 	   20.0000 	   31.0508 
    3.4714 	   20.9600 	    3.0000 	   20.0000 	   31.0818 
    3.2578 	   21.0220 	    3.0000 	   20.0000 	   31.1128 
    3.4714 	   21.0780 	    3.0000 	   20.0000 	   31.1408 
    3.3951 	   21.1380 	    3.0000 	   20.0000 	   31.1708 
    3.4409 	   21.1980 	    3.0000 	   20.0000 	   31.2008 
    3.2731 	   21.2540 	    3.0000 	   20.0000 	   31.2288 
    3.5325 	   21.3080 	    3.0000 	   20.0000 	   31.2558 
    3.6088 	   21.3640 	    3.0000 	   20.0000 	   31.2838 
    3.5630 	   21.4180 	    3.0000 	   20.0000 	   31.3108 
    3.5172 	   21.4680 	    3.0000 	   20.0000 	   31.3358 
    3.5325 	   21.5200 	    3.0000 	   20.0000 	   31.3618 
    3.5325 	   21.5680 	    3.0000 	   20.0000 	   31.3858 
    3.5172 	   21.6340 	    3.0000 	   20.0000 	   31.4188 
    3.5782 	   21.6940 	    3.0000 	   20.0000 	   31.4488 
    3.6240 	   21.7560 	    3.0000 	   20.0000 	   31.4798 
    3.6240 	   21.8120 	    3.0000 	   20.0000 	   31.5078 
    3.6393 	   21.8760 	    3.0000 	   20.0000 	   31.5398 
    3.6088 	   21.9420 	    3.0000 	   20.0000 	   31.5718 
    3.4714 	   22.0080 	    3.0000 	   20.0000 	   31.6059 
    3.5782 	   22.0720 	    3.0000 	   20.0000 	   31.6379 
    3.5019 	   22.1420 	    3.0000 	   20.0000 	   31.6729 
    3.5172 	   22.2060 	    3.0000 	   20.0000 	   31.7049 
    3.5477 	   22.2660 	    3.0000 	   20.0000 	   31.7349 
    3.6088 	   22.3260 	    3.0000 	   20.0000 	   31.7649 
    3.6393 	   22.3900 	    3.0000 	   20.0000 	   31.7969 
    3.5172 	   22.4500 	    3.0000 	   20.0000 	   31.8269 
    3.1357 	   22.5100 	    3.0000 	   20.0000 	   31.8569 
    3.6240 	   22.5760 	    3.0000 	   20.0000 	   31.8899 
    3.6088 	   22.6440 	    3.0000 	   20.0000 	   31.9239 
    3.6698 	   22.7060 	    3.0000 	   20.0000 	   31.9549 
    3.5935 	   22.7720 	    3.0000 	   20.0000 	   31.9879 
    3.5477 	   22.8320 	    3.0000 	   20.0000 	   32.0179 
    3.6240 	   22.8940 	    3.0000 	   20.0000 	   32.0489 
    3.6393 	   22.9520 	    3.0000 	   20.0000 	   32.0779 
    3.6851 	   23.0160 	    3.0000 	   20.0000 	   32.1099 
    3.7613 	   23.0720 	    3.0000 	   20.0000 	   32.1379 
    3.6698 	   23.1380 	    3.0000 	   20.0000 	   32.1709 
    3.7766 	   23.2020 	    3.0000 	   20.0000 	   32.2029 
    3.7003 	   23.2580 	    3.0000 	   20.0000 	   32.2309 
    3.7613 	   23.3120 	    3.0000 	   20.0000 	   32.2579 
    3.7461 	   23.3660 	    3.0000 	   20.0000 	   32.2849 
    3.7766 	   23.4200 	    3.0000 	   20.0000 	   32.3119 
    3.6698 	   23.4720 	    3.0000 	   20.0000 	   32.3379 
    3.6851 	   23.5320 	    3.0000 	   20.0000 	   32.3679 
    3.8071 	   23.5920 	    3.0000 	   20.0000 	   32.3979 
    3.9445 	   23.6620 	    3.0000 	   20.0000 	   32.4329 
    3.8224 	   23.7260 	    3.0000 	   20.0000 	   32.4649 
    3.8682 	   23.7920 	    3.0000 	   20.0000 	   32.4979 
    3.8376 	   23.8540 	    3.0000 	   20.0000 	   32.5289 
    3.7613 	   23.9120 	    3.0000 	   20.0000 	   32.5579 
    3.7766 	   23.9780 	    3.0000 	   20.0000 	   32.5909 
    3.7766 	   24.0400 	    3.0000 	   20.0000 	   32.6219 
    3.8529 	   24.1040 	    3.0000 	   20.0000 	   32.6539 
    3.7919 	   24.1720 	    3.0000 	   20.0000 	   32.6879 
    3.6545 	   24.2340 	    3.0000 	   20.0000 	   32.7189 
    4.0055 	   24.2940 	    3.0000 	   20.0000 	   32.7489 
    3.8071 	   24.3540 	    3.0000 	   20.0000 	   32.7789 
    3.9597 	   24.4200 	    3.0000 	   20.0000 	   32.8119 
    3.8376 	   24.4800 	    3.0000 	   20.0000 	   32.8419 
    3.8529 	   24.5440 	    3.0000 	   20.0000 	   32.8739 
    3.8224 	   24.6080 	    3.0000 	   20.0000 	   32.9059 
    3.7613 	   24.6760 	    3.0000 	   20.0000 	   32.9399 
    3.9139 	   24.7400 	    3.0000 	   20.0000 	   32.9719 
    4.0513 	   24.8080 	    3.0000 	   20.0000 	   33.0059 
    4.0208 	   24.8700 	    3.0000 	   20.0000 	   33.0369 
    3.9139 	   24.9320 	    3.0000 	   20.0000 	   33.0679 
    3.8071 	   24.9940 	    3.0000 	   20.0000 	   33.0989 
    3.9597 	   25.0540 	    3.0000 	   20.0000 	   33.1289 
    3.9292 	   25.1100 	    3.0000 	   20.0000 	   33.1569 
    3.7919 	   25.1740 	    3.0000 	   20.0000 	   33.1889 
    4.0818 	   25.2360 	    3.0000 	   20.0000 	   33.2199 
    3.8834 	   25.2920 	    3.0000 	   20.0000 	   33.2479 
    4.0818 	   25.3440 	    3.0000 	   20.0000 	   33.2739 
    4.0208 	   25.4000 	    3.0000 	   20.0000 	   33.3019 
    3.9597 	   25.4540 	    3.0000 	   20.0000 	   33.3289 
    4.0208 	   25.5040 	    3.0000 	   20.0000 	   33.3540 
    3.9902 	   25.5560 	    3.0000 	   20.0000 	   33.3800 
    3.9750 	   25.6140 	    3.0000 	   20.0000 	   33.4090 
    4.1428 	   25.6720 	    3.0000 	   20.0000 	   33.4380 
    4.0513 	   25.7340 	    3.0000 	   20.0000 	   33.4690 
    4.0208 	   25.8000 	    3.0000 	   20.0000 	   33.5020 
    3.9750 	   25.8580 	    3.0000 	   20.0000 	   33.5310 
    4.0055 	   25.9180 	    3.0000 	   20.0000 	   33.5610 
    3.9597 	   25.9760 	    3.0000 	   20.0000 	   33.5900 
    4.2191 	   26.0380 	    3.0000 	   20.0000 	   33.6210 
    4.0665 	   26.1000 	    3.0000 	   20.0000 	   33.6520 
    3.7156 	   26.2280 	    3.0000 	   20.0000 	   33.7160 
    4.1581 	   26.2900 	    3.0000 	   20.0000 	   33.7470 
    4.1886 	   26.3500 	    3.0000 	   20.0000 	   33.7760 
    4.2039 	   26.4100 	    3.0000 	   20.0000 	   33.8060 
    4.0055 	   26.4720 	    3.0000 	   20.0000 	   33.8370 
    4.0970 	   26.5360 	    3.0000 	   20.0000 	   33.8690 
    4.1733 	   26.5960 	    3.0000 	   20.0000 	   33.8990 
    4.0513 	   26.6640 	    3.0000 	   20.0000 	   33.9330 
    4.1581 	   26.7260 	    3.0000 	   20.0000 	   33.9640 
    4.1581 	   26.7880 	    3.0000 	   20.0000 	   33.9950 
    4.1581 	   26.8480 	    3.0000 	   20.0000 	   34.0250 
    4.1123 	   26.9100 	    3.0000 	   20.0000 	   34.0560 
    4.1581 	   26.9720 	    3.0000 	   20.0000 	   34.0870 
    4.1581 	   27.0340 	    3.0000 	   20.0000 	   34.1180 
    4.2954 	   27.0900 	    3.0000 	   20.0000 	   34.1460 
    4.1123 	   27.1540 	    3.0000 	   20.0000 	   34.1780 
    4.0055 	   27.2100 	    3.0000 	   20.0000 	   34.2060 
    4.1733 	   27.2660 	    3.0000 	   20.0000 	   34.2340 
    4.2039 	   27.3220 	    3.0000 	   20.0000 	   34.2620 
    4.2039 	   27.3760 	    3.0000 	   20.0000 	   34.2890 
    4.2191 	   27.4320 	    3.0000 	   20.0000 	   34.3170 
    4.2344 	   27.4840 	    3.0000 	   20.0000 	   34.3430 
    4.2191 	   27.5360 	    3.0000 	   20.0000 	   34.3690 
    4.2649 	   27.5900 	    3.0000 	   20.0000 	   34.3960 
    4.2344 	   27.6560 	    3.0000 	   20.0000 	   34.4290 
    4.3565 	   27.7140 	    3.0000 	   20.0000 	   34.4580 
    4.2496 	   27.7760 	    3.0000 	   20.0000 	   34.4890 
    4.4175 	   27.8480 	    3.0000 	   20.0000 	   34.5250 
    4.2954 	   27.9100 	    3.0000 	   20.0000 	   34.5560 
    4.3565 	   27.9760 	    3.0000 	   20.0000 	   34.5890 
    4.1886 	   28.0420 	    3.0000 	   20.0000 	   34.6220 
    4.2649 	   28.1060 	    3.0000 	   20.0000 	   34.6540 
    3.9597 	   28.1780 	    3.0000 	   20.0000 	   34.6900 
    4.3870 	   28.2420 	    3.0000 	   20.0000 	   34.7220 
    4.0360 	   28.3040 	    3.0000 	   20.0000 	   34.7530 
    4.4175 	   28.3640 	    3.0000 	   20.0000 	   34.7830 
    4.5853 	   28.4280 	    3.0000 	   20.0000 	   34.8150 
    4.5548 	   28.4840 	    3.0000 	   20.0000 	   34.8430 
    4.2649 	   28.5540 	    3.0000 	   20.0000 	   34.8780 
    4.4022 	   28.6160 	    3.0000 	   20.0000 	   34.9090 
    4.3717 	   28.6800 	    3.0000 	   20.0000 	   34.9410 
    4.3870 	   28.7360 	    3.0000 	   20.0000 	   34.9690 
    4.6159 	   28.7920 	    3.0000 	   20.0000 	   34.9970 
    4.4480 	   28.8440 	    3.0000 	   20.0000 	   35.0230 
    4.4633 	   28.9060 	    3.0000 	   20.0000 	   35.0540 
    4.5853 	   28.9640 	    3.0000 	   20.0000 	   35.0830 
    4.5090 	   29.0260 	    3.0000 	   20.0000 	   35.1141 
    4.4022 	   29.0840 	    3.0000 	   20.0000 	   35.1431 
    4.4633 	   29.1440 	    3.0000 	   20.0000 	   35.1731 
    4.4785 	   29.2000 	    3.0000 	   20.0000 	   35.2011 
    4.6616 	   29.2560 	    3.0000 	   20.0000 	   35.2291 
    4.3870 	   29.3120 	    3.0000 	   20.0000 	   35.2571 
    4.5853 	   29.3680 	    3.0000 	   20.0000 	   35.2851 
    4.4480 	   29.4220 	    3.0000 	   20.0000 	   35.3121 
    4.6921 	   29.4740 	    3.0000 	   20.0000 	   35.3381 
    4.4785 	   29.5260 	    3.0000 	   20.0000 	   35.3641 
    4.4938 	   29.5800 	    3.0000 	   20.0000 	   35.3911 
    4.5548 	   29.6500 	    3.0000 	   20.0000 	   35.4261 
    4.5243 	   29.7120 	    3.0000 	   20.0000 	   35.4571 
    4.5853 	   29.7760 	    3.0000 	   20.0000 	   35.4891 
    4.5090 	   29.8400 	    3.0000 	   20.0000 	   35.5211 
    4.7684 	   29.9080 	    3.0000 	   20.0000 	   35.5551 
    4.6311 	   29.9740 	    3.0000 	   20.0000 	   35.5881 
    4.5548 	   30.0420 	    3.0000 	   20.0000 	   35.6221 
    4.6311 	   30.1040 	    3.0000 	   20.0000 	   35.6531 
    4.5701 	   30.1760 	    3.0000 	   20.0000 	   35.6891 
    4.6464 	   30.2360 	    3.0000 	   20.0000 	   35.7191 
    4.3107 	   30.3000 	    3.0000 	   20.0000 	   35.7511 
    4.6464 	   30.3600 	    3.0000 	   20.0000 	   35.7811 
    4.6464 	   30.4200 	    3.0000 	   20.0000 	   35.8111 
    4.7227 	   30.4860 	    3.0000 	   20.0000 	   35.8441 
    4.6464 	   30.5440 	    3.0000 	   20.0000 	   35.8731 
    4.6159 	   30.6080 	    3.0000 	   20.0000 	   35.9051 
    4.7532 	   30.6800 	    3.0000 	   20.0000 	   35.9411 
    4.7684 	   30.7460 	    3.0000 	   20.0000 	   35.9741 
    4.6616 	   30.8080 	    3.0000 	   20.0000 	   36.0051 
    4.5243 	   30.8740 	    3.0000 	   20.0000 	   36.0381 
    4.8600 	   30.9380 	    3.0000 	   20.0000 	   36.0701 
    4.7837 	   31.0040 	    3.0000 	   20.0000 	   36.1031 
    4.7684 	   31.0700 	    3.0000 	   20.0000 	   36.1361 
    4.7837 	   31.1360 	    3.0000 	   20.0000 	   36.1691 
    4.6616 	   31.1960 	    3.0000 	   20.0000 	   36.1991 
    4.7227 	   31.2520 	    3.0000 	   20.0000 	   36.2271 
    4.7684 	   31.3080 	    3.0000 	   20.0000 	   36.2551 
    4.8753 	   31.3620 	    3.0000 	   20.0000 	   36.2821 
    4.8295 	   31.4160 	    3.0000 	   20.0000 	   36.3091 
    4.9210 	   31.4720 	    3.0000 	   20.0000 	   36.3371 
    4.7990 	   31.5240 	    3.0000 	   20.0000 	   36.3631 
    4.7837 	   31.5820 	    3.0000 	   20.0000 	   36.3921 
    4.9363 	   31.6460 	    3.0000 	   20.0000 	   36.4241 
    4.8905 	   31.7020 	    3.0000 	   20.0000 	   36.4521 
    4.9668 	   31.7560 	    3.0000 	   20.0000 	   36.4791 
    4.6464 	   31.8140 	    3.0000 	   20.0000 	   36.5081 
    4.7227 	   31.8760 	    3.0000 	   20.0000 	   36.5391 
    4.8753 	   31.9440 	    3.0000 	   20.0000 	   36.5731 
    4.8753 	   32.0100 	    3.0000 	   20.0000 	   36.6061 
    4.8905 	   32.0800 	    3.0000 	   20.0000 	   36.6411 
    5.0126 	   32.1500 	    3.0000 	   20.0000 	   36.6761 
    4.9668 	   32.2120 	    3.0000 	   20.0000 	   36.7071 
    4.9210 	   32.2800 	    3.0000 	   20.0000 	   36.7411 
    4.8905 	   32.3400 	    3.0000 	   20.0000 	   36.7711 
    5.0431 	   32.4040 	    3.0000 	   20.0000 	   36.8031 
    4.8295 	   32.4660 	    3.0000 	   20.0000 	   36.8341 
    5.0278 	   32.5320 	    3.0000 	   20.0000 	   36.8671 
    5.1347 	   32.6000 	    3.0000 	   20.0000 	   36.9012 
    4.9668 	   32.6720 	    3.0000 	   20.0000 	   36.9372 
    5.1194 	   32.7460 	    3.0000 	   20.0000 	   36.9742 
    4.9668 	   32.8120 	    3.0000 	   20.0000 	   37.0072 
    5.0126 	   32.8780 	    3.0000 	   20.0000 	   37.0402 
    5.0278 	   32.9440 	    3.0000 	   20.0000 	   37.0732 
    5.0584 	   33.0060 	    3.0000 	   20.0000 	   37.1042 
    5.1499 	   33.0700 	    3.0000 	   20.0000 	   37.1362 
    4.8142 	   33.1380 	    3.0000 	   20.0000 	   37.1702 
    5.1194 	   33.1980 	    3.0000 	   20.0000 	   37.2002 
    4.9973 	   33.2580 	    3.0000 	   20.0000 	   37.2302 
    5.1652 	   33.3120 	    3.0000 	   20.0000 	   37.2572 
    5.1957 	   33.3700 	    3.0000 	   20.0000 	   37.2862 
    5.1194 	   33.4260 	    3.0000 	   20.0000 	   37.3142 
    5.2415 	   33.4800 	    3.0000 	   20.0000 	   37.3412 
    5.1804 	   33.5340 	    3.0000 	   20.0000 	   37.3682 
    5.1194 	   33.5920 	    3.0000 	   20.0000 	   37.3972 
    5.1652 	   33.6440 	    3.0000 	   20.0000 	   37.4232 
    5.1347 	   33.7000 	    3.0000 	   20.0000 	   37.4512 
    5.0889 	   33.7560 	    3.0000 	   20.0000 	   37.4792 
    4.9516 	   33.8180 	    3.0000 	   20.0000 	   37.5102 
    5.1194 	   33.8820 	    3.0000 	   20.0000 	   37.5422 
    5.2415 	   33.9460 	    3.0000 	   20.0000 	   37.5742 
    5.0736 	   34.0120 	    3.0000 	   20.0000 	   37.6072 
    5.2110 	   34.0700 	    3.0000 	   20.0000 	   37.6362 
    5.1804 	   34.1400 	    3.0000 	   20.0000 	   37.6712 
    5.2262 	   34.2020 	    3.0000 	   20.0000 	   37.7022 
    5.0736 	   34.2660 	    3.0000 	   20.0000 	   37.7342 
    5.2110 	   34.3260 	    3.0000 	   20.0000 	   37.7642 
    5.3025 	   34.3880 	    3.0000 	   20.0000 	   37.7952 
    5.3330 	   34.4500 	    3.0000 	   20.0000 	   37.8262 
    5.3330 	   34.5220 	    3.0000 	   20.0000 	   37.8622 
    5.3941 	   34.5820 	    3.0000 	   20.0000 	   37.8922 
    5.1499 	   34.6500 	    3.0000 	   20.0000 	   37.9262 
    5.2720 	   34.7160 	    3.0000 	   20.0000 	   37.9592 
    5.4246 	   34.7800 	    3.0000 	   20.0000 	   37.9912 
    5.2873 	   34.8440 	    3.0000 	   20.0000 	   38.0232 
    5.2567 	   34.9160 	    3.0000 	   20.0000 	   38.0592 
    5.3178 	   34.9820 	    3.0000 	   20.0000 	   38.0922 
    5.2567 	   35.0460 	    3.0000 	   20.0000 	   38.1242 
    5.3635 	   35.1100 	    3.0000 	   20.0000 	   38.1562 
    5.3788 	   35.1780 	    3.0000 	   20.0000 	   38.1902 
    5.4704 	   35.2360 	    3.0000 	   20.0000 	   38.2192 
    5.5161 	   35.2940 	    3.0000 	   20.0000 	   38.2482 
    5.4704 	   35.3520 	    3.0000 	   20.0000 	   38.2772 
    5.6382 	   35.4180 	    3.0000 	   20.0000 	   38.3102 
    5.5619 	   35.4740 	    3.0000 	   20.0000 	   38.3382 
    5.4856 	   35.5360 	    3.0000 	   20.0000 	   38.3692 
    5.4704 	   35.5880 	    3.0000 	   20.0000 	   38.3952 
    5.5467 	   35.6420 	    3.0000 	   20.0000 	   38.4222 
    5.5467 	   35.7000 	    3.0000 	   20.0000 	   38.4512 
    5.5619 	   35.7540 	    3.0000 	   20.0000 	   38.4782 
    5.4551 	   35.8160 	    3.0000 	   20.0000 	   38.5092 
    5.4398 	   35.8760 	    3.0000 	   20.0000 	   38.5392 
    5.5467 	   35.9440 	    3.0000 	   20.0000 	   38.5732 
    5.5619 	   36.0160 	    3.0000 	   20.0000 	   38.6092 
    5.4704 	   36.0800 	    3.0000 	   20.0000 	   38.6413 
    5.5314 	   36.1480 	    3.0000 	   20.0000 	   38.6753 
    5.5161 	   36.2080 	    3.0000 	   20.0000 	   38.7053 
    5.5619 	   36.2740 	    3.0000 	   20.0000 	   38.7383 
    5.6992 	   36.3440 	    3.0000 	   20.0000 	   38.7733 
    5.6687 	   36.4120 	    3.0000 	   20.0000 	   38.8073 
    5.7298 	   36.4740 	    3.0000 	   20.0000 	   38.8383 
    5.5924 	   36.5380 	    3.0000 	   20.0000 	   38.8703 
    5.8213 	   36.6120 	    3.0000 	   20.0000 	   38.9073 
    5.6992 	   36.6760 	    3.0000 	   20.0000 	   38.9393 
    5.7603 	   36.7520 	    3.0000 	   20.0000 	   38.9773 
    5.8671 	   36.8140 	    3.0000 	   20.0000 	   39.0083 
    5.7298 	   36.8800 	    3.0000 	   20.0000 	   39.0413 
    5.6535 	   36.9420 	    3.0000 	   20.0000 	   39.0723 
    5.7145 	   37.0080 	    3.0000 	   20.0000 	   39.1053 
    5.6840 	   37.0720 	    3.0000 	   20.0000 	   39.1373 
    5.7755 	   37.1440 	    3.0000 	   20.0000 	   39.1733 
    5.6840 	   37.2040 	    3.0000 	   20.0000 	   39.2033 
    5.6382 	   37.2600 	    3.0000 	   20.0000 	   39.2313 
    5.5467 	   37.3180 	    3.0000 	   20.0000 	   39.2603 
    5.7450 	   37.3760 	    3.0000 	   20.0000 	   39.2893 
    5.7145 	   37.4320 	    3.0000 	   20.0000 	   39.3173 
    5.9586 	   37.4900 	    3.0000 	   20.0000 	   39.3463 
    5.7603 	   37.5460 	    3.0000 	   20.0000 	   39.3743 
    5.8824 	   37.6060 	    3.0000 	   20.0000 	   39.4043 
    5.8366 	   37.6700 	    3.0000 	   20.0000 	   39.4363 
    5.7908 	   37.7380 	    3.0000 	   20.0000 	   39.4703 
    5.7908 	   37.8040 	    3.0000 	   20.0000 	   39.5033 
    5.7450 	   37.8720 	    3.0000 	   20.0000 	   39.5373 
    5.9739 	   37.9400 	    3.0000 	   20.0000 	   39.5713 
    5.9892 	   38.0040 	    3.0000 	   20.0000 	   39.6033 
    5.6535 	   38.0680 	    3.0000 	   20.0000 	   39.6353 
    5.8671 	   38.1360 	    3.0000 	   20.0000 	   39.6693 
    6.0655 	   38.1960 	    3.0000 	   20.0000 	   39.6993 
    5.9586 	   38.2580 	    3.0000 	   20.0000 	   39.7303 
    5.7603 	   38.3300 	    3.0000 	   20.0000 	   39.7663 
    6.0197 	   38.3880 	    3.0000 	   20.0000 	   39.7953 
    5.7450 	   38.4500 	    3.0000 	   20.0000 	   39.8263 
    6.1265 	   38.5160 	    3.0000 	   20.0000 	   39.8593 
    5.9739 	   38.5760 	    3.0000 	   20.0000 	   39.8893 
    5.8213 	   38.6480 	    3.0000 	   20.0000 	   39.9253 
    6.1112 	   38.7140 	    3.0000 	   20.0000 	   39.9583 
    6.0349 	   38.7800 	    3.0000 	   20.0000 	   39.9913 
    5.9739 	   38.8420 	    3.0000 	   20.0000 	   40.0223 
    5.9892 	   38.9080 	    3.0000 	   20.0000 	   40.0553 
    6.0807 	   38.9740 	    3.0000 	   20.0000 	   40.0883 
    6.1418 	   39.0440 	    3.0000 	   20.0000 	   40.1233 
    6.0349 	   39.1040 	    3.0000 	   20.0000 	   40.1533 
    6.1723 	   39.1700 	    3.0000 	   20.0000 	   40.1863 
    6.1418 	   39.2340 	    3.0000 	   20.0000 	   40.2183 
    6.2333 	   39.2900 	    3.0000 	   20.0000 	   40.2463 
    6.1112 	   39.3480 	    3.0000 	   20.0000 	   40.2753 
    6.2028 	   39.4140 	    3.0000 	   20.0000 	   40.3083 
    6.1265 	   39.4700 	    3.0000 	   20.0000 	   40.3363 
    6.2943 	   39.5260 	    3.0000 	   20.0000 	   40.3643 
    6.3096 	   39.5780 	    3.0000 	   20.0000 	   40.3904 
    6.1570 	   39.6360 	    3.0000 	   20.0000 	   40.4194 
    6.3096 	   39.7020 	    3.0000 	   20.0000 	   40.4524 
    6.2638 	   39.7600 	    3.0000 	   20.0000 	   40.4814 
    6.3554 	   39.8200 	    3.0000 	   20.0000 	   40.5114 
    6.2486 	   39.8840 	    3.0000 	   20.0000 	   40.5434 
    6.2181 	   39.9500 	    3.0000 	   20.0000 	   40.5764 
    6.3706 	   40.0180 	    3.0000 	   20.0000 	   40.6104 
    6.2943 	   40.0860 	    3.0000 	   20.0000 	   40.6434 
    6.4927 	   40.1520 	    3.0000 	   20.0000 	   40.6774 
    6.4012 	   40.2200 	    3.0000 	   20.0000 	   40.7114 
    6.3706 	   40.2940 	    3.0000 	   20.0000 	   40.7484 
    6.3401 	   40.3580 	    3.0000 	   20.0000 	   40.7804 
    6.3859 	   40.4180 	    3.0000 	   20.0000 	   40.8104 
    6.2486 	   40.4820 	    3.0000 	   20.0000 	   40.8424 
    6.3554 	   40.5460 	    3.0000 	   20.0000 	   40.8744 
    6.4012 	   40.6100 	    3.0000 	   20.0000 	   40.9064 
    6.4164 	   40.6780 	    3.0000 	   20.0000 	   40.9404 
    6.5690 	   40.7440 	    3.0000 	   20.0000 	   40.9734 
    6.1418 	   40.8080 	    3.0000 	   20.0000 	   41.0054 
    6.3706 	   40.8840 	    3.0000 	   20.0000 	   41.0434 
    6.2486 	   40.9480 	    3.0000 	   20.0000 	   41.0754 
    6.5080 	   41.0120 	    3.0000 	   20.0000 	   41.1074 
    6.6148 	   41.0740 	    3.0000 	   20.0000 	   41.1384 
    6.5385 	   41.1460 	    3.0000 	   20.0000 	   41.1744 
    6.2028 	   41.2120 	    3.0000 	   20.0000 	   41.2074 
    6.4469 	   41.2720 	    3.0000 	   20.0000 	   41.2374 
    6.6758 	   41.3340 	    3.0000 	   20.0000 	   41.2684 
    6.3096 	   41.3940 	    3.0000 	   20.0000 	   41.2984 
    6.5690 	   41.4520 	    3.0000 	   20.0000 	   41.3274 
    6.5537 	   41.5080 	    3.0000 	   20.0000 	   41.3554 
    6.7369 	   41.5640 	    3.0000 	   20.0000 	   41.3834 
    6.6911 	   41.6200 	    3.0000 	   20.0000 	   41.4114 
    6.6148 	   41.6940 	    3.0000 	   20.0000 	   41.4484 
    6.5537 	   41.7580 	    3.0000 	   20.0000 	   41.4804 
    6.6758 	   41.8200 	    3.0000 	   20.0000 	   41.5114 
    6.6911 	   41.8860 	    3.0000 	   20.0000 	   41.5444 
    6.7063 	   41.9540 	    3.0000 	   20.0000 	   41.5784 
    6.6300 	   42.0160 	    3.0000 	   20.0000 	   41.6094 
    6.7369 	   42.0780 	    3.0000 	   20.0000 	   41.6404 
    6.8132 	   42.1500 	    3.0000 	   20.0000 	   41.6764 
    6.7826 	   42.2120 	    3.0000 	   20.0000 	   41.7074 
    6.8589 	   42.2860 	    3.0000 	   20.0000 	   41.7444 
    6.7826 	   42.3500 	    3.0000 	   20.0000 	   41.7764 
    6.8132 	   42.4120 	    3.0000 	   20.0000 	   41.8074 
    6.8589 	   42.4760 	    3.0000 	   20.0000 	   41.8394 
    6.8589 	   42.5420 	    3.0000 	   20.0000 	   41.8724 
    6.8742 	   42.6100 	    3.0000 	   20.0000 	   41.9064 
    6.8437 	   42.6740 	    3.0000 	   20.0000 	   41.9384 
    6.7674 	   42.7440 	    3.0000 	   20.0000 	   41.9734 
    6.9352 	   42.8160 	    3.0000 	   20.0000 	   42.0094 
    6.9047 	   42.8800 	    3.0000 	   20.0000 	   42.0414 
    6.7826 	   42.9560 	    3.0000 	   20.0000 	   42.0794 
    6.9200 	   43.0220 	    3.0000 	   20.0000 	   42.1124 
    7.0268 	   43.0880 	    3.0000 	   20.0000 	   42.1455 
    6.8742 	   43.1580 	    3.0000 	   20.0000 	   42.1805 
    7.1336 	   43.2260 	    3.0000 	   20.0000 	   42.2145 
    7.1183 	   43.2860 	    3.0000 	   20.0000 	   42.2445 
    7.1031 	   43.3560 	    3.0000 	   20.0000 	   42.2795 
    7.0878 	   43.4140 	    3.0000 	   20.0000 	   42.3085 
    7.0420 	   43.4700 	    3.0000 	   20.0000 	   42.3365 
    7.0420 	   43.5280 	    3.0000 	   20.0000 	   42.3655 
    7.2251 	   43.5820 	    3.0000 	   20.0000 	   42.3925 
    7.2404 	   43.6340 	    3.0000 	   20.0000 	   42.4185 
    7.2404 	   43.7000 	    3.0000 	   20.0000 	   42.4515 
    6.8742 	   43.7560 	    3.0000 	   20.0000 	   42.4795 
    7.1489 	   43.8120 	    3.0000 	   20.0000 	   42.5075 
    6.7979 	   43.8740 	    3.0000 	   20.0000 	   42.5385 
    6.7521 	   43.9400 	    3.0000 	   20.0000 	   42.5715 
    7.1794 	   44.0040 	    3.0000 	   20.0000 	   42.6035 
    7.1031 	   44.0660 	    3.0000 	   20.0000 	   42.6345 
    7.2404 	   44.1380 	    3.0000 	   20.0000 	   42.6705 
    7.1946 	   44.1960 	    3.0000 	   20.0000 	   42.6995 
    7.2404 	   44.2600 	    3.0000 	   20.0000 	   42.7315 
    7.3625 	   44.3220 	    3.0000 	   20.0000 	   42.7625 
    7.2404 	   44.3900 	    3.0000 	   20.0000 	   42.7965 
    7.2709 	   44.4620 	    3.0000 	   20.0000 	   42.8325 
    7.3777 	   44.5260 	    3.0000 	   20.0000 	   42.8645 
    7.1946 	   44.5940 	    3.0000 	   20.0000 	   42.8985 
    7.3930 	   44.6600 	    3.0000 	   20.0000 	   42.9315 
    7.1946 	   44.7240 	    3.0000 	   20.0000 	   42.9635 
    7.3777 	   44.7920 	    3.0000 	   20.0000 	   42.9975 
    7.3930 	   44.8560 	    3.0000 	   20.0000 	   43.0295 
    7.1946 	   44.9200 	    3.0000 	   20.0000 	   43.0615 
    7.4540 	   44.9860 	    3.0000 	   20.0000 	   43.0945 
    7.4540 	   45.0520 	    3.0000 	   20.0000 	   43.1275 
    7.4083 	   45.1220 	    3.0000 	   20.0000 	   43.1625 
    7.5303 	   45.1860 	    3.0000 	   20.0000 	   43.1945 
    7.4693 	   45.2460 	    3.0000 	   20.0000 	   43.2245 
    7.6371 	   45.3080 	    3.0000 	   20.0000 	   43.2555 
    7.6829 	   45.3720 	    3.0000 	   20.0000 	   43.2875 
    7.5303 	   45.4400 	    3.0000 	   20.0000 	   43.3215 
    7.6982 	   45.5000 	    3.0000 	   20.0000 	   43.3515 
    7.5608 	   45.5540 	    3.0000 	   20.0000 	   43.3785 
    7.5608 	   45.6100 	    3.0000 	   20.0000 	   43.4065 
    7.6677 	   45.6660 	    3.0000 	   20.0000 	   43.4345 
    7.5761 	   45.7220 	    3.0000 	   20.0000 	   43.4625 
    7.5608 	   45.7860 	    3.0000 	   20.0000 	   43.4945 
    7.6066 	   45.8500 	    3.0000 	   20.0000 	   43.5265 
    7.7287 	   45.9100 	    3.0000 	   20.0000 	   43.5565 
    7.7440 	   45.9740 	    3.0000 	   20.0000 	   43.5885 
    7.7897 	   46.0440 	    3.0000 	   20.0000 	   43.6235 
    7.7287 	   46.1100 	    3.0000 	   20.0000 	   43.6565 
    7.6524 	   46.1860 	    3.0000 	   20.0000 	   43.6945 
    7.7287 	   46.2460 	    3.0000 	   20.0000 	   43.7245 
    7.6524 	   46.3120 	    3.0000 	   20.0000 	   43.7575 
    7.8355 	   46.3760 	    3.0000 	   20.0000 	   43.7895 
    7.8050 	   46.4420 	    3.0000 	   20.0000 	   43.8225 
    7.8965 	   46.5140 	    3.0000 	   20.0000 	   43.8586 
    8.0339 	   46.5800 	    3.0000 	   20.0000 	   43.8916 
    7.8355 	   46.6400 	    3.0000 	   20.0000 	   43.9216 
    7.8050 	   46.7140 	    3.0000 	   20.0000 	   43.9586 
    8.0186 	   46.7760 	    3.0000 	   20.0000 	   43.9896 
    7.8508 	   46.8440 	    3.0000 	   20.0000 	   44.0236 
    7.9118 	   46.9080 	    3.0000 	   20.0000 	   44.0556 
    7.9728 	   46.9740 	    3.0000 	   20.0000 	   44.0886 
    7.9423 	   47.0400 	    3.0000 	   20.0000 	   44.1216 
    7.9271 	   47.1080 	    3.0000 	   20.0000 	   44.1556 
    7.9576 	   47.1720 	    3.0000 	   20.0000 	   44.1876 
    7.9576 	   47.2300 	    3.0000 	   20.0000 	   44.2166 
    7.9881 	   47.2900 	    3.0000 	   20.0000 	   44.2466 
    8.1254 	   47.3500 	    3.0000 	   20.0000 	   44.2766 
    8.0644 	   47.4060 	    3.0000 	   20.0000 	   44.3046 
    8.0339 	   47.4640 	    3.0000 	   20.0000 	   44.3336 
    8.0949 	   47.5240 	    3.0000 	   20.0000 	   44.3636 
    8.2628 	   47.5800 	    3.0000 	   20.0000 	   44.3916 
    8.2322 	   47.6380 	    3.0000 	   20.0000 	   44.4206 
    8.2170 	   47.7080 	    3.0000 	   20.0000 	   44.4556 
    8.2780 	   47.7740 	    3.0000 	   20.0000 	   44.4886 
    8.1102 	   47.8440 	    3.0000 	   20.0000 	   44.5236 
    8.2170 	   47.9120 	    3.0000 	   20.0000 	   44.5576 
    8.1102 	   47.9760 	    3.0000 	   20.0000 	   44.5896 
    8.0034 	   48.0400 	    3.0000 	   20.0000 	   44.6216 
    8.2017 	   48.1040 	    3.0000 	   20.0000 	   44.6536 
    8.4153 	   48.1800 	    3.0000 	   20.0000 	   44.6916 
    8.3238 	   48.2420 	    3.0000 	   20.0000 	   44.7226 
    8.4001 	   48.3120 	    3.0000 	   20.0000 	   44.7576 
    8.3391 	   48.3760 	    3.0000 	   20.0000 	   44.7896 
    8.3238 	   48.4400 	    3.0000 	   20.0000 	   44.8216 
    8.0949 	   48.5000 	    3.0000 	   20.0000 	   44.8516 
    8.3391 	   48.5580 	    3.0000 	   20.0000 	   44.8806 
    8.3238 	   48.6160 	    3.0000 	   20.0000 	   44.9096 
    8.6137 	   48.6740 	    3.0000 	   20.0000 	   44.9386 
    8.5374 	   48.7360 	    3.0000 	   20.0000 	   44.9696 
    8.2170 	   48.8080 	    3.0000 	   20.0000 	   45.0056 
    8.4611 	   48.8780 	    3.0000 	   20.0000 	   45.0406 
    8.6137 	   48.9480 	    3.0000 	   20.0000 	   45.0756 
    8.5374 	   49.0120 	    3.0000 	   20.0000 	   45.1076 
    8.5985 	   49.0800 	    3.0000 	   20.0000 	   45.1416 
    8.4611 	   49.1500 	    3.0000 	   20.0000 	   45.1766 
    8.7816 	   49.2120 	    3.0000 	   20.0000 	   45.2076 
    8.4001 	   49.2720 	    3.0000 	   20.0000 	   45.2376 
    8.5832 	   49.3340 	    3.0000 	   20.0000 	   45.2686 
    8.5679 	   49.3920 	    3.0000 	   20.0000 	   45.2976 
    8.5832 	   49.4520 	    3.0000 	   20.0000 	   45.3276 
    8.8121 	   49.5100 	    3.0000 	   20.0000 	   45.3566 
    8.6290 	   49.5660 	    3.0000 	   20.0000 	   45.3846 
    8.7663 	   49.6280 	    3.0000 	   20.0000 	   45.4156 
    8.6290 	   49.6860 	    3.0000 	   20.0000 	   45.4446 
    8.4916 	   49.7440 	    3.0000 	   20.0000 	   45.4736 
    8.8884 	   49.8100 	    3.0000 	   20.0000 	   45.5066 
    8.8579 	   49.8760 	    3.0000 	   20.0000 	   45.5396 
    8.8426 	   49.9440 	    3.0000 	   20.0000 	   45.5736 
    9.0257 	   50.0080 	    3.0000 	   20.0000 	   45.6057 
    8.8121 	   50.0760 	    3.0000 	   20.0000 	   45.6397 
    8.9952 	   50.2140 	    3.0000 	   20.0000 	   45.7087 
    9.0867 	   50.2760 	    3.0000 	   20.0000 	   45.7397 
    8.9494 	   50.3500 	    3.0000 	   20.0000 	   45.7767 
    9.0105 	   50.4140 	    3.0000 	   20.0000 	   45.8087 
    9.0562 	   50.4860 	    3.0000 	   20.0000 	   45.8447 
    9.0715 	   50.5500 	    3.0000 	   20.0000 	   45.8767 
    9.0410 	   50.6160 	    3.0000 	   20.0000 	   45.9097 
    9.1936 	   50.6820 	    3.0000 	   20.0000 	   45.9427 
    9.1020 	   50.7480 	    3.0000 	   20.0000 	   45.9757 
    9.1478 	   50.8200 	    3.0000 	   20.0000 	   46.0117 
    9.2851 	   50.8860 	    3.0000 	   20.0000 	   46.0447 
    9.1020 	   50.9440 	    3.0000 	   20.0000 	   46.0737 
    8.8884 	   51.0180 	    3.0000 	   20.0000 	   46.1107 
    8.9494 	   51.0820 	    3.0000 	   20.0000 	   46.1427 
    9.2546 	   51.1500 	    3.0000 	   20.0000 	   46.1767 
    9.3309 	   51.2080 	    3.0000 	   20.0000 	   46.2057 
    9.0105 	   51.2820 	    3.0000 	   20.0000 	   46.2427 
    9.2699 	   51.4060 	    3.0000 	   20.0000 	   46.3047 
    9.2241 	   51.4680 	    3.0000 	   20.0000 	   46.3357 
    9.4530 	   51.5340 	    3.0000 	   20.0000 	   46.3687 
    9.4530 	   51.5960 	    3.0000 	   20.0000 	   46.3997 
    9.5903 	   51.6580 	    3.0000 	   20.0000 	   46.4307 
    9.6056 	   51.7160 	    3.0000 	   20.0000 	   46.4597 
    9.4987 	   51.7820 	    3.0000 	   20.0000 	   46.4917 
    9.5598 	   51.8560 	    3.0000 	   20.0000 	   46.5297 
    9.5903 	   51.9160 	    3.0000 	   20.0000 	   46.5597 
    9.5903 	   51.9760 	    3.0000 	   20.0000 	   46.5897 
    9.6361 	   52.0320 	    3.0000 	   20.0000 	   46.6177 
    9.6208 	   52.0900 	    3.0000 	   20.0000 	   46.6467 
    9.6208 	   52.1540 	    3.0000 	   20.0000 	   46.6787 
    9.5903 	   52.2120 	    3.0000 	   20.0000 	   46.7077 
    9.7581 	   52.2700 	    3.0000 	   20.0000 	   46.7367 
    9.5598 	   52.3260 	    3.0000 	   20.0000 	   46.7647 
    9.6513 	   52.3840 	    3.0000 	   20.0000 	   46.7937 
    9.7429 	   52.4420 	    3.0000 	   20.0000 	   46.8227 
    9.8039 	   52.5000 	    3.0000 	   20.0000 	   46.8517 
    9.8802 	   52.5620 	    3.0000 	   20.0000 	   46.8827 
    9.8192 	   52.6340 	    3.0000 	   20.0000 	   46.9187 
    9.7734 	   52.6980 	    3.0000 	   20.0000 	   46.9507 
    9.8802 	   52.7580 	    3.0000 	   20.0000 	   46.9807 
    9.9260 	   52.8260 	    3.0000 	   20.0000 	   47.0147 
    9.8802 	   52.8940 	    3.0000 	   20.0000 	   47.0487 
   10.0023 	   52.9560 	    3.0000 	   20.0000 	   47.0797 
   10.0328 	   53.0200 	    3.0000 	   20.0000 	   47.1117 
   10.1854 	   53.1900 	    3.0000 	   20.0000 	   47.1967 
   10.1244 	   53.2620 	    3.0000 	   20.0000 	   47.2327 
   10.1091 	   53.3260 	    3.0000 	   20.0000 	   47.2647 
   10.2159 	   53.3900 	    3.0000 	   20.0000 	   47.2967 
   10.1396 	   53.4520 	    3.0000 	   20.0000 	   47.3277 
   10.0175 	   53.5200 	    3.0000 	   20.0000 	   47.3618 
   10.3075 	   53.5820 	    3.0000 	   20.0000 	   47.3928 
   10.2007 	   53.6380 	    3.0000 	   20.0000 	   47.4208 
   10.3685 	   53.6920 	    3.0000 	   20.0000 	   47.4478 
   10.3380 	   53.7500 	    3.0000 	   20.0000 	   47.4768 
   10.3227 	   53.8080 	    3.0000 	   20.0000 	   47.5058 
   10.4143 	   53.8680 	    3.0000 	   20.0000 	   47.5358 
   10.3990 	   53.9300 	    3.0000 	   20.0000 	   47.5668 
   10.4601 	   54.0040 	    3.0000 	   20.0000 	   47.6038 
   10.3685 	   54.0720 	    3.0000 	   20.0000 	   47.6378 
   10.5364 	   54.1480 	    3.0000 	   20.0000 	   47.6758 
   10.4295 	   54.2160 	    3.0000 	   20.0000 	   47.7098 
   10.3990 	   54.2820 	    3.0000 	   20.0000 	   47.7428 
   10.4143 	   54.3500 	    3.0000 	   20.0000 	   47.7768 
   10.5669 	   54.4180 	    3.0000 	   20.0000 	   47.8108 
   10.5669 	   54.4860 	    3.0000 	   20.0000 	   47.8448 
   10.6279 	   54.5540 	    3.0000 	   20.0000 	   47.8788 
   10.6737 	   54.6180 	    3.0000 	   20.0000 	   47.9108 
   10.6889 	   54.6920 	    3.0000 	   20.0000 	   47.9478 
   10.6279 	   54.7600 	    3.0000 	   20.0000 	   47.9818 
   10.7500 	   54.8260 	    3.0000 	   20.0000 	   48.0148 
   10.8873 	   54.8920 	    3.0000 	   20.0000 	   48.0478 
   10.8263 	   54.9560 	    3.0000 	   20.0000 	   48.0798 
   10.6584 	   55.0300 	    3.0000 	   20.0000 	   48.1168 
   10.9483 	   55.0940 	    3.0000 	   20.0000 	   48.1488 
   10.8873 	   55.1600 	    3.0000 	   20.0000 	   48.1818 
   10.9026 	   55.2220 	    3.0000 	   20.0000 	   48.2128 
   11.0094 	   55.2820 	    3.0000 	   20.0000 	   48.2428 
   10.9026 	   55.3480 	    3.0000 	   20.0000 	   48.2758 
   10.9636 	   55.4220 	    3.0000 	   20.0000 	   48.3128 
   11.0552 	   55.4860 	    3.0000 	   20.0000 	   48.3448 
   11.0246 	   55.5440 	    3.0000 	   20.0000 	   48.3738 
   11.1772 	   55.6040 	    3.0000 	   20.0000 	   48.4038 
   10.9483 	   55.6600 	    3.0000 	   20.0000 	   48.4318 
   10.8415 	   55.7160 	    3.0000 	   20.0000 	   48.4598 
   11.1467 	   55.7760 	    3.0000 	   20.0000 	   48.4898 
   11.0857 	   55.8400 	    3.0000 	   20.0000 	   48.5218 
   10.8873 	   55.9040 	    3.0000 	   20.0000 	   48.5538 
   11.3146 	   55.9740 	    3.0000 	   20.0000 	   48.5888 
   11.2993 	   56.0400 	    3.0000 	   20.0000 	   48.6218 
   11.2993 	   56.1180 	    3.0000 	   20.0000 	   48.6608 
   11.2688 	   56.1860 	    3.0000 	   20.0000 	   48.6948 
   11.3298 	   56.2540 	    3.0000 	   20.0000 	   48.7288 
   11.4519 	   56.3220 	    3.0000 	   20.0000 	   48.7628 
   11.5129 	   56.3920 	    3.0000 	   20.0000 	   48.7978 
   11.4214 	   56.4660 	    3.0000 	   20.0000 	   48.8348 
   11.5740 	   56.5340 	    3.0000 	   20.0000 	   48.8688 
   11.5434 	   56.5960 	    3.0000 	   20.0000 	   48.8998 
   11.5892 	   56.6640 	    3.0000 	   20.0000 	   48.9338 
   11.6197 	   56.7320 	    3.0000 	   20.0000 	   48.9678 
   11.6045 	   56.8000 	    3.0000 	   20.0000 	   49.0018 
   11.7418 	   56.8720 	    3.0000 	   20.0000 	   49.0378 
   11.8181 	   56.9420 	    3.0000 	   20.0000 	   49.0728 
   11.7723 	   57.0060 	    3.0000 	   20.0000 	   49.1049 
   11.7418 	   57.0840 	    3.0000 	   20.0000 	   49.1439 
   11.8639 	   57.1600 	    3.0000 	   20.0000 	   49.1819 
   11.8639 	   57.2260 	    3.0000 	   20.0000 	   49.2149 
   11.9097 	   57.2840 	    3.0000 	   20.0000 	   49.2439 
   12.0012 	   57.3440 	    3.0000 	   20.0000 	   49.2739 
   11.9707 	   57.4060 	    3.0000 	   20.0000 	   49.3049 
   11.8029 	   57.4760 	    3.0000 	   20.0000 	   49.3399 
   12.0012 	   57.5340 	    3.0000 	   20.0000 	   49.3689 
   12.0928 	   57.5940 	    3.0000 	   20.0000 	   49.3989 
   12.1538 	   57.6560 	    3.0000 	   20.0000 	   49.4299 
   12.0928 	   57.7100 	    3.0000 	   20.0000 	   49.4569 
   12.2606 	   57.7680 	    3.0000 	   20.0000 	   49.4859 
   12.2148 	   57.8280 	    3.0000 	   20.0000 	   49.5159 
   12.1996 	   57.9020 	    3.0000 	   20.0000 	   49.5529 
   12.2148 	   57.9700 	    3.0000 	   20.0000 	   49.5869 
   12.3217 	   58.0360 	    3.0000 	   20.0000 	   49.6199 
   12.4437 	   58.1060 	    3.0000 	   20.0000 	   49.6549 
   12.3980 	   58.1780 	    3.0000 	   20.0000 	   49.6899 
   12.3369 	   58.2520 	    3.0000 	   20.0000 	   49.7279 
   12.4437 	   58.3180 	    3.0000 	   20.0000 	   49.7609 
   12.5505 	   58.3860 	    3.0000 	   20.0000 	   49.7949 
   12.5658 	   58.4480 	    3.0000 	   20.0000 	   49.8259 
   12.3980 	   58.5100 	    3.0000 	   20.0000 	   49.8569 
   12.3980 	   58.5720 	    3.0000 	   20.0000 	   49.8879 
   12.7031 	   58.6420 	    3.0000 	   20.0000 	   49.9229 
   12.7184 	   58.7080 	    3.0000 	   20.0000 	   49.9559 
   12.6879 	   58.7860 	    3.0000 	   20.0000 	   49.9949 
   12.7794 	   58.8520 	    3.0000 	   20.0000 	   50.0279 
   12.7794 	   58.9220 	    3.0000 	   20.0000 	   50.0629 
   12.7947 	   58.9880 	    3.0000 	   20.0000 	   50.0959 
   12.9473 	   59.0520 	    3.0000 	   20.0000 	   50.1279 
   12.8405 	   59.1180 	    3.0000 	   20.0000 	   50.1609 
   13.0846 	   59.2600 	    3.0000 	   20.0000 	   50.2319 
   12.9778 	   59.3240 	    3.0000 	   20.0000 	   50.2639 
   13.0846 	   59.3960 	    3.0000 	   20.0000 	   50.2999 
   13.1762 	   59.4600 	    3.0000 	   20.0000 	   50.3319 
   13.1151 	   59.5260 	    3.0000 	   20.0000 	   50.3649 
   13.1914 	   59.5820 	    3.0000 	   20.0000 	   50.3929 
   13.1456 	   59.6400 	    3.0000 	   20.0000 	   50.4219 
   13.0388 	   59.6960 	    3.0000 	   20.0000 	   50.4499 
   12.9778 	   59.7540 	    3.0000 	   20.0000 	   50.4789 
   12.9473 	   59.8100 	    3.0000 	   20.0000 	   50.5069 
   12.6421 	   59.8760 	    3.0000 	   20.0000 	   50.5399 
   12.4285 	   59.9400 	    3.0000 	   20.0000 	   50.5719 
   12.2759 	   60.0100 	    3.0000 	   20.0000 	   50.6069 
   12.1538 	   60.0740 	    3.0000 	   20.0000 	   50.6389 
   12.0165 	   60.1520 	    3.0000 	   20.0000 	   50.6779 
   11.9097 	   60.2200 	    3.0000 	   20.0000 	   50.7119 
   11.8486 	   60.2860 	    3.0000 	   20.0000 	   50.7449 
   11.8029 	   60.3540 	    3.0000 	   20.0000 	   50.7789 
   11.5892 	   60.4220 	    3.0000 	   20.0000 	   50.8130 
   11.3909 	   60.4880 	    3.0000 	   20.0000 	   50.8460 
   11.3756 	   60.5540 	    3.0000 	   20.0000 	   50.8790 
   11.2688 	   60.6180 	    3.0000 	   20.0000 	   50.9110 
   11.2230 	   60.6840 	    3.0000 	   20.0000 	   50.9440 
   11.0552 	   60.7540 	    3.0000 	   20.0000 	   50.9790 
   10.9331 	   60.8220 	    3.0000 	   20.0000 	   51.0130 
   10.8721 	   60.8860 	    3.0000 	   20.0000 	   51.0450 
   10.7500 	   60.9520 	    3.0000 	   20.0000 	   51.0780 
   10.8263 	   61.0160 	    3.0000 	   20.0000 	   51.1100 
   10.4906 	   61.0840 	    3.0000 	   20.0000 	   51.1440 
   10.4753 	   61.1540 	    3.0000 	   20.0000 	   51.1790 
   10.3990 	   61.2180 	    3.0000 	   20.0000 	   51.2110 
   10.3532 	   61.2800 	    3.0000 	   20.0000 	   51.2410 
   10.2159 	   61.3420 	    3.0000 	   20.0000 	   51.2720 
   10.2770 	   61.4000 	    3.0000 	   20.0000 	   51.3010 
   10.0328 	   61.4620 	    3.0000 	   20.0000 	   51.3320 
    9.9718 	   61.5220 	    3.0000 	   20.0000 	   51.3620 
   10.0938 	   61.5820 	    3.0000 	   20.0000 	   51.3920 
    9.8650 	   61.6400 	    3.0000 	   20.0000 	   51.4210 
    9.8955 	   61.6980 	    3.0000 	   20.0000 	   51.4500 
    9.7581 	   61.7540 	    3.0000 	   20.0000 	   51.4780 
    9.8802 	   61.8100 	    3.0000 	   20.0000 	   51.5060 
    9.4682 	   61.8700 	    3.0000 	   20.0000 	   51.5360 
    9.5445 	   61.9400 	    3.0000 	   20.0000 	   51.5710 
    9.6208 	   62.0080 	    3.0000 	   20.0000 	   51.6050 
    9.5750 	   62.0760 	    3.0000 	   20.0000 	   51.6390 
    9.5293 	   62.1520 	    3.0000 	   20.0000 	   51.6770 
    9.4072 	   62.2200 	    3.0000 	   20.0000 	   51.7110 
    9.3767 	   62.2900 	    3.0000 	   20.0000 	   51.7460 
    9.2851 	   62.3560 	    3.0000 	   20.0000 	   51.7790 
    9.0562 	   62.4240 	    3.0000 	   20.0000 	   51.8130 
    9.0715 	   62.4900 	    3.0000 	   20.0000 	   51.8460 
    9.1478 	   62.5540 	    3.0000 	   20.0000 	   51.8780 
    9.1020 	   62.6200 	    3.0000 	   20.0000 	   51.9110 
    8.9036 	   62.6880 	    3.0000 	   20.0000 	   51.9450 
    8.9342 	   62.7500 	    3.0000 	   20.0000 	   51.9760 
    8.8731 	   62.8180 	    3.0000 	   20.0000 	   52.0100 
    8.8426 	   62.8860 	    3.0000 	   20.0000 	   52.0440 
    8.7358 	   62.9540 	    3.0000 	   20.0000 	   52.0780 
    8.5527 	   63.0180 	    3.0000 	   20.0000 	   52.1100 
    8.6595 	   63.0880 	    3.0000 	   20.0000 	   52.1450 
    8.5222 	   63.1560 	    3.0000 	   20.0000 	   52.1790 
    8.5679 	   63.2220 	    3.0000 	   20.0000 	   52.2120 
    8.3696 	   63.2840 	    3.0000 	   20.0000 	   52.2430 
    8.3543 	   63.3440 	    3.0000 	   20.0000 	   52.2730 
    8.3848 	   63.4060 	    3.0000 	   20.0000 	   52.3040 
    8.5069 	   63.4680 	    3.0000 	   20.0000 	   52.3350 
    8.2017 	   63.5280 	    3.0000 	   20.0000 	   52.3650 
    8.3238 	   63.5880 	    3.0000 	   20.0000 	   52.3950 
    8.1559 	   63.6480 	    3.0000 	   20.0000 	   52.4250 
    8.0339 	   63.7040 	    3.0000 	   20.0000 	   52.4530 
    8.1865 	   63.7660 	    3.0000 	   20.0000 	   52.4840 
    8.1102 	   63.8300 	    3.0000 	   20.0000 	   52.5160 
    8.0339 	   63.8980 	    3.0000 	   20.0000 	   52.5500 
    8.0034 	   63.9660 	    3.0000 	   20.0000 	   52.5840 
    8.0491 	   64.0300 	    3.0000 	   20.0000 	   52.6161 
    7.9271 	   64.0940 	    3.0000 	   20.0000 	   52.6481 
    7.8660 	   64.1740 	    3.0000 	   20.0000 	   52.6881 
    7.8355 	   64.2400 	    3.0000 	   20.0000 	   52.7211 
    7.7897 	   64.3100 	    3.0000 	   20.0000 	   52.7551 
    7.9118 	   64.3820 	    3.0000 	   20.0000 	   52.7921 
    7.6982 	   64.4440 	    3.0000 	   20.0000 	   52.8231 
    7.6982 	   64.5080 	    3.0000 	   20.0000 	   52.8551 
    7.7440 	   64.5760 	    3.0000 	   20.0000 	   52.8891 
    7.3472 	   64.6440 	    3.0000 	   20.0000 	   52.9231 
    7.7134 	   64.7100 	    3.0000 	   20.0000 	   52.9561 
    7.4693 	   64.7780 	    3.0000 	   20.0000 	   52.9901 
    7.5761 	   64.8440 	    3.0000 	   20.0000 	   53.0231 
    7.4083 	   64.9120 	    3.0000 	   20.0000 	   53.0571 
    7.4235 	   64.9760 	    3.0000 	   20.0000 	   53.0891 
    7.3014 	   65.0500 	    3.0000 	   20.0000 	   53.1261 
    7.3320 	   65.1140 	    3.0000 	   20.0000 	   53.1581 
    7.2251 	   65.1940 	    3.0000 	   20.0000 	   53.1971 
    7.2251 	   65.2540 	    3.0000 	   20.0000 	   53.2281 
    7.2557 	   65.3160 	    3.0000 	   20.0000 	   53.2591 
    7.1183 	   65.3740 	    3.0000 	   20.0000 	   53.2881 
    7.1031 	   65.4380 	    3.0000 	   20.0000 	   53.3201 
    7.3320 	   65.5000 	    3.0000 	   20.0000 	   53.3511 
    7.1031 	   65.5580 	    3.0000 	   20.0000 	   53.3801 
    7.1183 	   65.6180 	    3.0000 	   20.0000 	   53.4101 
    6.8589 	   65.6740 	    3.0000 	   20.0000 	   53.4381 
    7.1031 	   65.7320 	    3.0000 	   20.0000 	   53.4671 
    7.0420 	   65.7900 	    3.0000 	   20.0000 	   53.4961 
    7.0878 	   65.8480 	    3.0000 	   20.0000 	   53.5251 
    6.9657 	   65.9060 	    3.0000 	   20.0000 	   53.5541 
    7.0115 	   65.9680 	    3.0000 	   20.0000 	   53.5851 
    7.0115 	   66.0300 	    3.0000 	   20.0000 	   53.6161 
    6.9200 	   66.0880 	    3.0000 	   20.0000 	   53.6451 
    6.7063 	   66.1540 	    3.0000 	   20.0000 	   53.6781 
    6.7979 	   66.2140 	    3.0000 	   20.0000 	   53.7081 
    6.7521 	   66.2720 	    3.0000 	   20.0000 	   53.7371 
    6.6911 	   66.3360 	    3.0000 	   20.0000 	   53.7691 
    6.8894 	   66.4060 	    3.0000 	   20.0000 	   53.8041 
    6.7521 	   66.4720 	    3.0000 	   20.0000 	   53.8371 
    6.6300 	   66.5400 	    3.0000 	   20.0000 	   53.8711 
    6.6453 	   66.6140 	    3.0000 	   20.0000 	   53.9081 
    6.7063 	   66.6780 	    3.0000 	   20.0000 	   53.9401 
    6.6300 	   66.7480 	    3.0000 	   20.0000 	   53.9751 
    6.7216 	   66.8140 	    3.0000 	   20.0000 	   54.0081 
    6.5995 	   66.8860 	    3.0000 	   20.0000 	   54.0441 
    6.6453 	   66.9500 	    3.0000 	   20.0000 	   54.0761 
    6.3859 	   67.0160 	    3.0000 	   20.0000 	   54.1091 
    6.4927 	   67.0800 	    3.0000 	   20.0000 	   54.1411 
    6.3859 	   67.1540 	    3.0000 	   20.0000 	   54.1781 
    6.3706 	   67.2260 	    3.0000 	   20.0000 	   54.2141 
    6.5232 	   67.2900 	    3.0000 	   20.0000 	   54.2461 
    6.4469 	   67.3520 	    3.0000 	   20.0000 	   54.2771 
    6.2791 	   67.4140 	    3.0000 	   20.0000 	   54.3081 
    6.2486 	   67.4780 	    3.0000 	   20.0000 	   54.3401 
    6.3401 	   67.5380 	    3.0000 	   20.0000 	   54.3702 
    6.2181 	   67.6000 	    3.0000 	   20.0000 	   54.4012 
    6.3096 	   67.6620 	    3.0000 	   20.0000 	   54.4322 
    6.0502 	   67.7200 	    3.0000 	   20.0000 	   54.4612 
    6.1723 	   67.7780 	    3.0000 	   20.0000 	   54.4902 
    6.1723 	   67.8380 	    3.0000 	   20.0000 	   54.5202 
    5.9739 	   67.8980 	    3.0000 	   20.0000 	   54.5502 
    6.1723 	   67.9620 	    3.0000 	   20.0000 	   54.5822 
    6.1418 	   68.0320 	    3.0000 	   20.0000 	   54.6162 
    5.8366 	   68.0960 	    3.0000 	   20.0000 	   54.6492 
    6.0349 	   68.1720 	    3.0000 	   20.0000 	   54.6872 
    6.1570 	   68.2380 	    3.0000 	   20.0000 	   54.7202 
    5.8976 	   68.3060 	    3.0000 	   20.0000 	   54.7542 
    5.9892 	   68.3780 	    3.0000 	   20.0000 	   54.7902 
    5.9281 	   68.4420 	    3.0000 	   20.0000 	   54.8222 
    6.0197 	   68.5020 	    3.0000 	   20.0000 	   54.8522 
    5.8518 	   68.5600 	    3.0000 	   20.0000 	   54.8812 
    5.8824 	   68.6200 	    3.0000 	   20.0000 	   54.9112 
    6.0349 	   68.6780 	    3.0000 	   20.0000 	   54.9402 
    5.9586 	   68.7400 	    3.0000 	   20.0000 	   54.9712 
    5.8671 	   68.8060 	    3.0000 	   20.0000 	   55.0042 
    5.8061 	   68.8760 	    3.0000 	   20.0000 	   55.0392 
    5.9434 	   68.9460 	    3.0000 	   20.0000 	   55.0742 
    5.7298 	   69.0120 	    3.0000 	   20.0000 	   55.1072 
    5.7145 	   69.0760 	    3.0000 	   20.0000 	   55.1392 
    5.8518 	   69.1480 	    3.0000 	   20.0000 	   55.1752 
    5.7298 	   69.2160 	    3.0000 	   20.0000 	   55.2092 
    5.7145 	   69.2820 	    3.0000 	   20.0000 	   55.2422 
    5.7298 	   69.3400 	    3.0000 	   20.0000 	   55.2712 
    5.7145 	   69.4040 	    3.0000 	   20.0000 	   55.3032 
    5.5924 	   69.4640 	    3.0000 	   20.0000 	   55.3332 
    5.6077 	   69.5220 	    3.0000 	   20.0000 	   55.3622 
    5.5772 	   69.5860 	    3.0000 	   20.0000 	   55.3942 
    5.4704 	   69.6460 	    3.0000 	   20.0000 	   55.4242 
    5.5619 	   69.7040 	    3.0000 	   20.0000 	   55.4532 
    5.6382 	   69.7660 	    3.0000 	   20.0000 	   55.4842 
    5.5161 	   69.8360 	    3.0000 	   20.0000 	   55.5192 
    5.6229 	   69.9020 	    3.0000 	   20.0000 	   55.5522 
    5.4856 	   69.9700 	    3.0000 	   20.0000 	   55.5862 
    5.4856 	   70.0400 	    3.0000 	   20.0000 	   55.6212 
    5.4551 	   70.1120 	    3.0000 	   20.0000 	   55.6572 
    5.4704 	   70.1860 	    3.0000 	   20.0000 	   55.6942 
    5.4856 	   70.2560 	    3.0000 	   20.0000 	   55.7292 
    5.6229 	   70.3220 	    3.0000 	   20.0000 	   55.7622 
    5.3635 	   70.3900 	    3.0000 	   20.0000 	   55.7962 
    5.4398 	   70.4580 	    3.0000 	   20.0000 	   55.8302 
    5.3788 	   70.5240 	    3.0000 	   20.0000 	   55.8632 
    5.4093 	   70.5900 	    3.0000 	   20.0000 	   55.8962 
    5.3025 	   70.6580 	    3.0000 	   20.0000 	   55.9302 
    5.2567 	   70.7240 	    3.0000 	   20.0000 	   55.9632 
    5.3635 	   70.7900 	    3.0000 	   20.0000 	   55.9962 
    5.2262 	   70.8560 	    3.0000 	   20.0000 	   56.0292 
    5.2415 	   70.9260 	    3.0000 	   20.0000 	   56.0642 
    5.1041 	   70.9960 	    3.0000 	   20.0000 	   56.0993 
    5.2567 	   71.0620 	    3.0000 	   20.0000 	   56.1323 
    5.3025 	   71.1280 	    3.0000 	   20.0000 	   56.1653 
    5.3788 	   71.1940 	    3.0000 	   20.0000 	   56.1983 
    5.1499 	   71.2580 	    3.0000 	   20.0000 	   56.2303 
    5.2262 	   71.3220 	    3.0000 	   20.0000 	   56.2623 
    5.1347 	   71.3840 	    3.0000 	   20.0000 	   56.2933 
    5.0584 	   71.4480 	    3.0000 	   20.0000 	   56.3243 
    5.1957 	   71.5060 	    3.0000 	   20.0000 	   56.3543 
    5.0736 	   71.5680 	    3.0000 	   20.0000 	   56.3853 
    5.0736 	   71.6280 	    3.0000 	   20.0000 	   56.4153 
    5.1347 	   71.6860 	    3.0000 	   20.0000 	   56.4443 
    5.0278 	   71.7420 	    3.0000 	   20.0000 	   56.4723 
    5.1194 	   71.8000 	    3.0000 	   20.0000 	   56.5013 
    5.0431 	   71.8640 	    3.0000 	   20.0000 	   56.5333 
    4.7227 	   71.9300 	    3.0000 	   20.0000 	   56.5663 
    4.9668 	   72.0000 	    3.0000 	   20.0000 	   56.6013 
    4.8905 	   72.0660 	    3.0000 	   20.0000 	   56.6343 
    5.0431 	   72.1340 	    3.0000 	   20.0000 	   56.6683 
    4.9058 	   72.2040 	    3.0000 	   20.0000 	   56.7033 
    4.9668 	   72.2760 	    3.0000 	   20.0000 	   56.7393 
    5.0584 	   72.3480 	    3.0000 	   20.0000 	   56.7753 
    4.9821 	   72.4160 	    3.0000 	   20.0000 	   56.8093 
    4.9821 	   72.4820 	    3.0000 	   20.0000 	   56.8423 
    5.0431 	   72.5460 	    3.0000 	   20.0000 	   56.8743 
    4.9516 	   72.6120 	    3.0000 	   20.0000 	   56.9073 
    4.8905 	   72.6780 	    3.0000 	   20.0000 	   56.9403 
    4.9210 	   72.7500 	    3.0000 	   20.0000 	   56.9763 
    4.7227 	   72.8160 	    3.0000 	   20.0000 	   57.0093 
    4.5090 	   72.8900 	    3.0000 	   20.0000 	   57.0463 
    4.7379 	   72.9560 	    3.0000 	   20.0000 	   57.0793 
    4.7837 	   73.0240 	    3.0000 	   20.0000 	   57.1133 
    4.7379 	   73.0940 	    3.0000 	   20.0000 	   57.1483 
    4.7532 	   73.1600 	    3.0000 	   20.0000 	   57.1813 
    4.7379 	   73.2280 	    3.0000 	   20.0000 	   57.2153 
    4.8600 	   73.2940 	    3.0000 	   20.0000 	   57.2483 
    4.4633 	   73.3600 	    3.0000 	   20.0000 	   57.2813 
    4.6921 	   73.4200 	    3.0000 	   20.0000 	   57.3113 
    4.5853 	   73.4820 	    3.0000 	   20.0000 	   57.3423 
    4.7227 	   73.5440 	    3.0000 	   20.0000 	   57.3733 
    4.6769 	   73.6060 	    3.0000 	   20.0000 	   57.4043 
    4.6616 	   73.6680 	    3.0000 	   20.0000 	   57.4353 
    4.4938 	   73.7260 	    3.0000 	   20.0000 	   57.4643 
    4.5701 	   73.7840 	    3.0000 	   20.0000 	   57.4933 
    4.5548 	   73.8480 	    3.0000 	   20.0000 	   57.5253 
    4.4938 	   73.9140 	    3.0000 	   20.0000 	   57.5583 
    4.5090 	   73.9860 	    3.0000 	   20.0000 	   57.5943 
    4.5090 	   74.0540 	    3.0000 	   20.0000 	   57.6283 
    4.5396 	   74.1220 	    3.0000 	   20.0000 	   57.6623 
    4.5243 	   74.1960 	    3.0000 	   20.0000 	   57.6993 
    4.5853 	   74.2640 	    3.0000 	   20.0000 	   57.7333 
    4.5548 	   74.3320 	    3.0000 	   20.0000 	   57.7673 
    4.5701 	   74.3980 	    3.0000 	   20.0000 	   57.8003 
    4.5548 	   74.4680 	    3.0000 	   20.0000 	   57.8354 
    4.3717 	   74.5380 	    3.0000 	   20.0000 	   57.8704 
    4.5701 	   74.6120 	    3.0000 	   20.0000 	   57.9074 
    4.4480 	   74.6780 	    3.0000 	   20.0000 	   57.9404 
    4.3870 	   74.7460 	    3.0000 	   20.0000 	   57.9744 
    4.4785 	   74.8120 	    3.0000 	   20.0000 	   58.0074 
    4.4175 	   74.8800 	    3.0000 	   20.0000 	   58.0414 
    4.4480 	   74.9460 	    3.0000 	   20.0000 	   58.0744 
    4.3259 	   75.0100 	    3.0000 	   20.0000 	   58.1064 
    4.4022 	   75.0820 	    3.0000 	   20.0000 	   58.1424 
    4.3259 	   75.1520 	    3.0000 	   20.0000 	   58.1774 
    4.5090 	   75.2220 	    3.0000 	   20.0000 	   58.2124 
    4.3565 	   75.2860 	    3.0000 	   20.0000 	   58.2444 
    4.2039 	   75.3560 	    3.0000 	   20.0000 	   58.2794 
    4.3717 	   75.4180 	    3.0000 	   20.0000 	   58.3104 
    4.4327 	   75.4780 	    3.0000 	   20.0000 	   58.3404 
    4.3565 	   75.5400 	    3.0000 	   20.0000 	   58.3714 
    4.3259 	   75.6020 	    3.0000 	   20.0000 	   58.4024 
    4.2954 	   75.6640 	    3.0000 	   20.0000 	   58.4334 
    4.2649 	   75.7240 	    3.0000 	   20.0000 	   58.4634 
    4.3259 	   75.7800 	    3.0000 	   20.0000 	   58.4914 
    4.2496 	   75.8420 	    3.0000 	   20.0000 	   58.5214 
    4.1733 	   75.9100 	    3.0000 	   20.0000 	   58.5564 
    4.2802 	   75.9820 	    3.0000 	   20.0000 	   58.5924 
    4.2344 	   76.0480 	    3.0000 	   20.0000 	   58.6254 
    4.1733 	   76.1180 	    3.0000 	   20.0000 	   58.6604 
    4.3259 	   76.1900 	    3.0000 	   20.0000 	   58.6964 
    4.3107 	   76.2600 	    3.0000 	   20.0000 	   58.7314 
    4.1581 	   76.3280 	    3.0000 	   20.0000 	   58.7654 
    4.2496 	   76.3980 	    3.0000 	   20.0000 	   58.8004 
    4.1428 	   76.4700 	    3.0000 	   20.0000 	   58.8364 
    4.2191 	   76.5400 	    3.0000 	   20.0000 	   58.8704 
    3.8834 	   76.6080 	    3.0000 	   20.0000 	   58.9054 
    4.1733 	   76.6800 	    3.0000 	   20.0000 	   58.9414 
    3.9597 	   76.7500 	    3.0000 	   20.0000 	   58.9764 
    4.2039 	   76.8180 	    3.0000 	   20.0000 	   59.0104 
    4.2191 	   76.8860 	    3.0000 	   20.0000 	   59.0444 
    4.0360 	   76.9560 	    3.0000 	   20.0000 	   59.0794 
    4.0970 	   77.0240 	    3.0000 	   20.0000 	   59.1134 
    4.0970 	   77.0920 	    3.0000 	   20.0000 	   59.1474 
    4.0970 	   77.1620 	    3.0000 	   20.0000 	   59.1824 
    4.0055 	   77.2340 	    3.0000 	   20.0000 	   59.2184 
    4.0513 	   77.2980 	    3.0000 	   20.0000 	   59.2504 
    4.1428 	   77.3660 	    3.0000 	   20.0000 	   59.2844 
    4.1733 	   77.4280 	    3.0000 	   20.0000 	   59.3154 
    4.0513 	   77.4920 	    3.0000 	   20.0000 	   59.3474 
    4.0208 	   77.5520 	    3.0000 	   20.0000 	   59.3774 
    3.8682 	   77.6120 	    3.0000 	   20.0000 	   59.4074 
    4.0970 	   77.6740 	    3.0000 	   20.0000 	   59.4384 
    4.0055 	   77.7340 	    3.0000 	   20.0000 	   59.4684 
    4.0665 	   77.7920 	    3.0000 	   20.0000 	   59.4974 
    4.0208 	   77.8540 	    3.0000 	   20.0000 	   59.5284 
    3.8834 	   77.9160 	    3.0000 	   20.0000 	   59.5594 
    3.9597 	   77.9840 	    3.0000 	   20.0000 	   59.5934 
    3.8376 	   78.0520 	    3.0000 	   20.0000 	   59.6275 
    3.8682 	   78.1220 	    3.0000 	   20.0000 	   59.6625 
    3.9292 	   78.1960 	    3.0000 	   20.0000 	   59.6995 
    3.9139 	   78.2680 	    3.0000 	   20.0000 	   59.7355 
    3.7919 	   78.3380 	    3.0000 	   20.0000 	   59.7705 
    3.8682 	   78.4060 	    3.0000 	   20.0000 	   59.8045 
    3.8376 	   78.4760 	    3.0000 	   20.0000 	   59.8395 
    3.6545 	   78.5440 	    3.0000 	   20.0000 	   59.8725 
    3.7766 	   78.6100 	    3.0000 	   20.0000 	   59.9065 
    3.7919 	   78.6800 	    3.0000 	   20.0000 	   59.9415 
    3.8224 	   78.7500 	    3.0000 	   20.0000 	   59.9765 
    3.8071 	   78.8200 	    3.0000 	   21.0000 	    0.0115 
    3.7766 	   78.8900 	    3.0000 	   21.0000 	    0.0465 
    3.7156 	   78.9560 	    3.0000 	   21.0000 	    0.0795 
    3.6698 	   79.0200 	    3.0000 	   21.0000 	    0.1115 
    3.7766 	   79.0900 	    3.0000 	   21.0000 	    0.1465 
    3.6851 	   79.1580 	    3.0000 	   21.0000 	    0.1805 
    3.7919 	   79.2260 	    3.0000 	   21.0000 	    0.2145 
    3.5782 	   79.2980 	    3.0000 	   21.0000 	    0.2505 
    3.8224 	   79.3600 	    3.0000 	   21.0000 	    0.2815 
    3.6393 	   79.4260 	    3.0000 	   21.0000 	    0.3145 
    3.5782 	   79.4880 	    3.0000 	   21.0000 	    0.3455 
    3.6851 	   79.5540 	    3.0000 	   21.0000 	    0.3785 
    3.7156 	   79.6180 	    3.0000 	   21.0000 	    0.4105 
    3.9139 	   79.6840 	    3.0000 	   21.0000 	    0.4435 
    3.6545 	   79.7480 	    3.0000 	   21.0000 	    0.4755 
    3.6698 	   79.8080 	    3.0000 	   21.0000 	    0.5055 
    3.6698 	   79.8740 	    3.0000 	   21.0000 	    0.5385 
    3.6851 	   79.9400 	    3.0000 	   21.0000 	    0.5715 
    3.5630 	   80.0120 	    3.0000 	   21.0000 	    0.6075 
    3.7613 	   80.0860 	    3.0000 	   21.0000 	    0.6445 
    3.6088 	   80.1600 	    3.0000 	   21.0000 	    0.6815 
    3.4257 	   80.2300 	    3.0000 	   21.0000 	    0.7165 
    3.5630 	   80.3020 	    3.0000 	   21.0000 	    0.7525 
    3.6088 	   80.3680 	    3.0000 	   21.0000 	    0.7855 
    3.2578 	   80.4360 	    3.0000 	   21.0000 	    0.8195 
    3.6088 	   80.5060 	    3.0000 	   21.0000 	    0.8545 
    3.6393 	   80.5780 	    3.0000 	   21.0000 	    0.8905 
    3.5630 	   80.6460 	    3.0000 	   21.0000 	    0.9245 
    3.4867 	   80.7180 	    3.0000 	   21.0000 	    0.9605 
    3.5172 	   80.7860 	    3.0000 	   21.0000 	    0.9945 
    3.4104 	   80.8560 	    3.0000 	   21.0000 	    1.0295 
    3.4714 	   80.9260 	    3.0000 	   21.0000 	    1.0645 
    3.5477 	   80.9920 	    3.0000 	   21.0000 	    1.0975 
    3.6851 	   81.0620 	    3.0000 	   21.0000 	    1.1325 
    3.5477 	   81.1320 	    3.0000 	   21.0000 	    1.1675 
    3.3188 	   81.2020 	    3.0000 	   21.0000 	    1.2025 
    3.4714 	   81.2740 	    3.0000 	   21.0000 	    1.2385 
    3.5019 	   81.3460 	    3.0000 	   21.0000 	    1.2745 
    3.4867 	   81.4100 	    3.0000 	   21.0000 	    1.3065 
    3.2120 	   81.4760 	    3.0000 	   21.0000 	    1.3386 
    3.5325 	   81.5380 	    3.0000 	   21.0000 	    1.3706 
    3.5019 	   81.6020 	    3.0000 	   21.0000 	    1.4026 
    3.3494 	   81.6660 	    3.0000 	   21.0000 	    1.4346 
    3.3951 	   81.7260 	    3.0000 	   21.0000 	    1.4646 
    3.3341 	   81.7840 	    3.0000 	   21.0000 	    1.4936 
    3.5630 	   81.8420 	    3.0000 	   21.0000 	    1.5226 
    3.6240 	   81.9020 	    3.0000 	   21.0000 	    1.5526 
    3.4409 	   81.9680 	    3.0000 	   21.0000 	    1.5856 
    3.5172 	   82.0380 	    3.0000 	   21.0000 	    1.6206 
    3.2425 	   82.1060 	    3.0000 	   21.0000 	    1.6546 
    3.3188 	   82.1880 	    3.0000 	   21.0000 	    1.6956 
    3.3951 	   82.2580 	    3.0000 	   21.0000 	    1.7306 
    3.3341 	   82.3280 	    3.0000 	   21.0000 	    1.7656 
    3.3494 	   82.4000 	    3.0000 	   21.0000 	    1.8016 
    3.1662 	   82.4700 	    3.0000 	   21.0000 	    1.8366 
    3.4409 	   82.5420 	    3.0000 	   21.0000 	    1.8726 
    3.2883 	   82.6140 	    3.0000 	   21.0000 	    1.9086 
    3.1815 	   82.6840 	    3.0000 	   21.0000 	    1.9436 
    3.3341 	   82.7520 	    3.0000 	   21.0000 	    1.9776 
    3.2883 	   82.8220 	    3.0000 	   21.0000 	    2.0126 
    3.1815 	   82.8920 	    3.0000 	   21.0000 	    2.0476 
    3.1968 	   82.9600 	    3.0000 	   21.0000 	    2.0816 
    3.2731 	   83.0280 	    3.0000 	   21.0000 	    2.1156 
    3.2425 	   83.0980 	    3.0000 	   21.0000 	    2.1506 
    3.3036 	   83.1700 	    3.0000 	   21.0000 	    2.1866 
    3.3036 	   83.2420 	    3.0000 	   21.0000 	    2.2226 
    3.1052 	   83.3120 	    3.0000 	   21.0000 	    2.2576 
    3.3036 	   83.3760 	    3.0000 	   21.0000 	    2.2896 
    3.1815 	   83.4420 	    3.0000 	   21.0000 	    2.3226 
    3.1205 	   83.5080 	    3.0000 	   21.0000 	    2.3556 
    3.1510 	   83.5720 	    3.0000 	   21.0000 	    2.3876 
    3.0900 	   83.6340 	    3.0000 	   21.0000 	    2.4186 
    3.1205 	   83.6960 	    3.0000 	   21.0000 	    2.4496 
    3.1510 	   83.7580 	    3.0000 	   21.0000 	    2.4806 
    3.1815 	   83.8160 	    3.0000 	   21.0000 	    2.5096 
    3.0747 	   83.8780 	    3.0000 	   21.0000 	    2.5406 
    3.0747 	   83.9460 	    3.0000 	   21.0000 	    2.5746 
    3.1662 	   84.0180 	    3.0000 	   21.0000 	    2.6106 
    3.2273 	   84.0860 	    3.0000 	   21.0000 	    2.6446 
    3.1968 	   84.1620 	    3.0000 	   21.0000 	    2.6826 
    3.2425 	   84.2320 	    3.0000 	   21.0000 	    2.7176 
    3.0594 	   84.3040 	    3.0000 	   21.0000 	    2.7536 
    3.1815 	   84.3760 	    3.0000 	   21.0000 	    2.7896 
    3.1815 	   84.4460 	    3.0000 	   21.0000 	    2.8246 
    3.0747 	   84.5180 	    3.0000 	   21.0000 	    2.8606 
    3.1357 	   84.5880 	    3.0000 	   21.0000 	    2.8956 
    3.0594 	   84.6580 	    3.0000 	   21.0000 	    2.9306 
    3.1052 	   84.7280 	    3.0000 	   21.0000 	    2.9656 
    3.1052 	   84.8000 	    3.0000 	   21.0000 	    3.0016 
    2.9984 	   84.8720 	    3.0000 	   21.0000 	    3.0376 
    3.1205 	   84.9420 	    3.0000 	   21.0000 	    3.0726 
    3.0289 	   85.0100 	    3.0000 	   21.0000 	    3.1067 
    3.0747 	   85.0760 	    3.0000 	   21.0000 	    3.1397 
    3.1052 	   85.1440 	    3.0000 	   21.0000 	    3.1737 
    2.9068 	   85.2100 	    3.0000 	   21.0000 	    3.2067 
    3.0900 	   85.2780 	    3.0000 	   21.0000 	    3.2407 
    2.9679 	   85.3500 	    3.0000 	   21.0000 	    3.2767 
    3.0137 	   85.4140 	    3.0000 	   21.0000 	    3.3087 
    2.8763 	   85.4840 	    3.0000 	   21.0000 	    3.3437 
    2.8916 	   85.5520 	    3.0000 	   21.0000 	    3.3777 
    2.8763 	   85.6200 	    3.0000 	   21.0000 	    3.4117 
    3.1815 	   85.6800 	    3.0000 	   21.0000 	    3.4417 
    2.9374 	   85.7420 	    3.0000 	   21.0000 	    3.4727 
    2.7543 	   85.8020 	    3.0000 	   21.0000 	    3.5027 
    2.8458 	   85.8620 	    3.0000 	   21.0000 	    3.5327 
    2.8153 	   85.9300 	    3.0000 	   21.0000 	    3.5667 
    3.0594 	   85.9980 	    3.0000 	   21.0000 	    3.6007 
    2.9526 	   86.0740 	    3.0000 	   21.0000 	    3.6387 
    2.9374 	   86.1480 	    3.0000 	   21.0000 	    3.6757 
    2.8305 	   86.2320 	    3.0000 	   21.0000 	    3.7177 
    2.8611 	   86.3040 	    3.0000 	   21.0000 	    3.7537 
    2.9068 	   86.3740 	    3.0000 	   21.0000 	    3.7887 
    2.7848 	   86.4440 	    3.0000 	   21.0000 	    3.8237 
    2.8916 	   86.5100 	    3.0000 	   21.0000 	    3.8567 
    2.8305 	   86.5800 	    3.0000 	   21.0000 	    3.8917 
    2.9374 	   86.6500 	    3.0000 	   21.0000 	    3.9267 
    2.6627 	   86.7240 	    3.0000 	   21.0000 	    3.9637 
    2.7695 	   86.7940 	    3.0000 	   21.0000 	    3.9987 
    2.7848 	   86.8680 	    3.0000 	   21.0000 	    4.0357 
    2.7237 	   86.9400 	    3.0000 	   21.0000 	    4.0717 
    2.4796 	   87.0100 	    3.0000 	   21.0000 	    4.1067 
    2.8611 	   87.0760 	    3.0000 	   21.0000 	    4.1397 
    3.0137 	   87.1440 	    3.0000 	   21.0000 	    4.1737 
    2.8916 	   87.2160 	    3.0000 	   21.0000 	    4.2097 
    2.8305 	   87.2880 	    3.0000 	   21.0000 	    4.2457 
    2.7237 	   87.3600 	    3.0000 	   21.0000 	    4.2817 
    2.8305 	   87.4240 	    3.0000 	   21.0000 	    4.3137 
    2.6932 	   87.4880 	    3.0000 	   21.0000 	    4.3457 
    2.3575 	   87.5540 	    3.0000 	   21.0000 	    4.3787 
    2.6932 	   87.6180 	    3.0000 	   21.0000 	    4.4107 
    2.8305 	   87.6820 	    3.0000 	   21.0000 	    4.4427 
    2.9221 	   87.7460 	    3.0000 	   21.0000 	    4.4747 
    2.7543 	   87.8040 	    3.0000 	   21.0000 	    4.5037 
    2.6322 	   87.8680 	    3.0000 	   21.0000 	    4.5357 
    2.7848 	   87.9400 	    3.0000 	   21.0000 	    4.5717 
    2.7695 	   88.0100 	    3.0000 	   21.0000 	    4.6067 
    2.8611 	   88.0760 	    3.0000 	   21.0000 	    4.6397 
    2.7085 	   88.1540 	    3.0000 	   21.0000 	    4.6787 
    2.7848 	   88.2240 	    3.0000 	   21.0000 	    4.7137 
    2.6932 	   88.2900 	    3.0000 	   21.0000 	    4.7467 
    2.8916 	   88.3620 	    3.0000 	   21.0000 	    4.7827 
    2.6474 	   88.4280 	    3.0000 	   21.0000 	    4.8157 
    2.6932 	   88.4980 	    3.0000 	   21.0000 	    4.8508 
    2.7237 	   88.5720 	    3.0000 	   21.0000 	    4.8878 
    2.5559 	   88.6400 	    3.0000 	   21.0000 	    4.9218 
    2.6627 	   88.7140 	    3.0000 	   21.0000 	    4.9588 
    2.6627 	   88.7900 	    3.0000 	   21.0000 	    4.9968 
    2.6169 	   88.8580 	    3.0000 	   21.0000 	    5.0308 
    2.6322 	   88.9320 	    3.0000 	   21.0000 	    5.0678 
    2.6627 	   89.0000 	    3.0000 	   21.0000 	    5.1018 
    2.7085 	   89.0700 	    3.0000 	   21.0000 	    5.1368 
    2.6474 	   89.1380 	    3.0000 	   21.0000 	    5.1708 
    2.6474 	   89.2120 	    3.0000 	   21.0000 	    5.2078 
    2.6322 	   89.2820 	    3.0000 	   21.0000 	    5.2428 
    2.7543 	   89.3560 	    3.0000 	   21.0000 	    5.2798 
    2.6169 	   89.4180 	    3.0000 	   21.0000 	    5.3108 
    2.5864 	   89.4840 	    3.0000 	   21.0000 	    5.3438 
    2.5406 	   89.5520 	    3.0000 	   21.0000 	    5.3778 
    2.4948 	   89.6160 	    3.0000 	   21.0000 	    5.4098 
    2.6932 	   89.6820 	    3.0000 	   21.0000 	    5.4428 
    2.4796 	   89.7440 	    3.0000 	   21.0000 	    5.4738 
    2.5864 	   89.8040 	    3.0000 	   21.0000 	    5.5038 
    2.4796 	   89.8640 	    3.0000 	   21.0000 	    5.5338 
    2.6169 	   89.9280 	    3.0000 	   21.0000 	    5.5658 
    2.5864 	   90.0020 	    3.0000 	   21.0000 	    5.6028 
    2.5711 	   90.0700 	    3.0000 	   21.0000 	    5.6368 
    2.5559 	   90.1540 	    3.0000 	   21.0000 	    5.6788 
    2.5559 	   90.2220 	    3.0000 	   21.0000 	    5.7128 
    2.5254 	   90.2900 	    3.0000 	   21.0000 	    5.7468 
    2.4643 	   90.3600 	    3.0000 	   21.0000 	    5.7818 
    2.3880 	   90.4300 	    3.0000 	   21.0000 	    5.8168 
    2.4033 	   90.5000 	    3.0000 	   21.0000 	    5.8518 
    2.4186 	   90.5720 	    3.0000 	   21.0000 	    5.8878 
    2.5559 	   90.6420 	    3.0000 	   21.0000 	    5.9228 
    2.5101 	   90.7160 	    3.0000 	   21.0000 	    5.9598 
    2.4033 	   90.7900 	    3.0000 	   21.0000 	    5.9968 
    2.4796 	   90.8600 	    3.0000 	   21.0000 	    6.0318 
    2.3270 	   90.9280 	    3.0000 	   21.0000 	    6.0658 
    2.3270 	   90.9960 	    3.0000 	   21.0000 	    6.0998 
    2.2965 	   91.0680 	    3.0000 	   21.0000 	    6.1358 
    2.3880 	   91.1420 	    3.0000 	   21.0000 	    6.1728 
    2.4491 	   91.2180 	    3.0000 	   21.0000 	    6.2108 
    2.3728 	   91.2860 	    3.0000 	   21.0000 	    6.2448 
    2.4033 	   91.3580 	    3.0000 	   21.0000 	    6.2808 
    2.4948 	   91.4240 	    3.0000 	   21.0000 	    6.3138 
    2.2965 	   91.4900 	    3.0000 	   21.0000 	    6.3468 
    2.3270 	   91.5560 	    3.0000 	   21.0000 	    6.3798 
    2.3880 	   91.6200 	    3.0000 	   21.0000 	    6.4118 
    2.3270 	   91.6820 	    3.0000 	   21.0000 	    6.4428 
    2.4491 	   91.7480 	    3.0000 	   21.0000 	    6.4758 
    2.4491 	   91.8140 	    3.0000 	   21.0000 	    6.5088 
    2.3270 	   91.8760 	    3.0000 	   21.0000 	    6.5398 
    2.4338 	   91.9380 	    3.0000 	   21.0000 	    6.5708 
    2.3270 	   92.0000 	    3.0000 	   21.0000 	    6.6019 
    2.2507 	   92.0700 	    3.0000 	   21.0000 	    6.6369 
    2.2354 	   92.1460 	    3.0000 	   21.0000 	    6.6749 
    2.6169 	   92.2160 	    3.0000 	   21.0000 	    6.7099 
    2.0066 	   92.2860 	    3.0000 	   21.0000 	    6.7449 
    2.2507 	   92.3520 	    3.0000 	   21.0000 	    6.7779 
    2.2812 	   92.4240 	    3.0000 	   21.0000 	    6.8139 
    2.2965 	   92.4920 	    3.0000 	   21.0000 	    6.8479 
    2.2812 	   92.5640 	    3.0000 	   21.0000 	    6.8839 
    2.2049 	   92.6340 	    3.0000 	   21.0000 	    6.9189 
    2.2354 	   92.7060 	    3.0000 	   21.0000 	    6.9549 
    2.3728 	   92.7860 	    3.0000 	   21.0000 	    6.9949 
    2.2049 	   92.8600 	    3.0000 	   21.0000 	    7.0319 
    2.1897 	   92.9300 	    3.0000 	   21.0000 	    7.0669 
    2.2812 	   93.0000 	    3.0000 	   21.0000 	    7.1019 
    2.2812 	   93.0720 	    3.0000 	   21.0000 	    7.1379 
    2.0981 	   93.1440 	    3.0000 	   21.0000 	    7.1739 
    2.2202 	   93.2160 	    3.0000 	   21.0000 	    7.2099 
    2.1592 	   93.2900 	    3.0000 	   21.0000 	    7.2459 
    2.3270 	   93.3600 	    3.0000 	   21.0000 	    7.2819 
    2.3117 	   93.4300 	    3.0000 	   21.0000 	    7.3169 
    2.2202 	   93.4940 	    3.0000 	   21.0000 	    7.3489 
    2.1439 	   93.5580 	    3.0000 	   21.0000 	    7.3809 
    2.1744 	   93.6240 	    3.0000 	   21.0000 	    7.4139 
    2.1744 	   93.6860 	    3.0000 	   21.0000 	    7.4449 
    2.2354 	   93.7500 	    3.0000 	   21.0000 	    7.4769 
    2.1134 	   93.8140 	    3.0000 	   21.0000 	    7.5089 
    2.3270 	   93.8740 	    3.0000 	   21.0000 	    7.5389 
    2.2202 	   93.9360 	    3.0000 	   21.0000 	    7.5699 
    2.2812 	   94.0000 	    3.0000 	   21.0000 	    7.6019 
    1.9913 	   94.0680 	    3.0000 	   21.0000 	    7.6359 
    2.0829 	   94.1440 	    3.0000 	   21.0000 	    7.6739 
    2.2354 	   94.2100 	    3.0000 	   21.0000 	    7.7069 
    2.0981 	   94.2780 	    3.0000 	   21.0000 	    7.7409 
    2.0829 	   94.3480 	    3.0000 	   21.0000 	    7.7759 
    2.0676 	   94.4220 	    3.0000 	   21.0000 	    7.8129 
    2.1286 	   94.4960 	    3.0000 	   21.0000 	    7.8499 
    2.0829 	   94.5660 	    3.0000 	   21.0000 	    7.8849 
    2.0829 	   94.6340 	    3.0000 	   21.0000 	    7.9189 
    2.1897 	   94.7060 	    3.0000 	   21.0000 	    7.9549 
    2.1134 	   94.7780 	    3.0000 	   21.0000 	    7.9909 
    2.0371 	   94.8480 	    3.0000 	   21.0000 	    8.0259 
    2.1744 	   94.9200 	    3.0000 	   21.0000 	    8.0619 
    2.1439 	   94.9920 	    3.0000 	   21.0000 	    8.0979 
    2.0676 	   95.0640 	    3.0000 	   21.0000 	    8.1339 
    2.2049 	   95.1340 	    3.0000 	   21.0000 	    8.1689 
    2.0523 	   95.2040 	    3.0000 	   21.0000 	    8.2039 
    2.1286 	   95.2820 	    3.0000 	   21.0000 	    8.2429 
    2.0066 	   95.3560 	    3.0000 	   21.0000 	    8.2799 
    2.1286 	   95.4280 	    3.0000 	   21.0000 	    8.3159 
    2.1897 	   95.4940 	    3.0000 	   21.0000 	    8.3480 
    2.0218 	   95.5600 	    3.0000 	   21.0000 	    8.3820 
    2.2202 	   95.6280 	    3.0000 	   21.0000 	    8.4160 
    1.9760 	   95.6900 	    3.0000 	   21.0000 	    8.4470 
    2.0218 	   95.7600 	    3.0000 	   21.0000 	    8.4820 
    1.9913 	   95.8260 	    3.0000 	   21.0000 	    8.5150 
    2.0523 	   95.8860 	    3.0000 	   21.0000 	    8.5450 
    1.8387 	   95.9480 	    3.0000 	   21.0000 	    8.5760 
    2.0676 	   96.0120 	    3.0000 	   21.0000 	    8.6080 
    1.9760 	   96.0740 	    3.0000 	   21.0000 	    8.6390 
    2.0829 	   96.1480 	    3.0000 	   21.0000 	    8.6760 
    1.9455 	   96.2160 	    3.0000 	   21.0000 	    8.7100 
    1.9303 	   96.2820 	    3.0000 	   21.0000 	    8.7420 
    1.7319 	   96.3460 	    3.0000 	   21.0000 	    8.7740 
    1.9760 	   96.4160 	    3.0000 	   21.0000 	    8.8090 
    2.1134 	   96.4900 	    3.0000 	   21.0000 	    8.8460 
    2.0523 	   96.5600 	    3.0000 	   21.0000 	    8.8810 
    1.9150 	   96.6320 	    3.0000 	   21.0000 	    8.9170 
    2.1744 	   96.7020 	    3.0000 	   21.0000 	    8.9520 
    1.9608 	   96.7760 	    3.0000 	   21.0000 	    8.9890 
    1.8997 	   96.8480 	    3.0000 	   21.0000 	    9.0250 
    1.8997 	   96.9180 	    3.0000 	   21.0000 	    9.0600 
    2.0066 	   96.9880 	    3.0000 	   21.0000 	    9.0950 
    1.9150 	   97.0500 	    3.0000 	   21.0000 	    9.1260 
    1.9303 	   97.1200 	    3.0000 	   21.0000 	    9.1610 
    1.8540 	   97.1880 	    3.0000 	   21.0000 	    9.1950 
    1.9303 	   97.2580 	    3.0000 	   21.0000 	    9.2300 
    1.7624 	   97.3260 	    3.0000 	   21.0000 	    9.2640 
    1.8997 	   97.3980 	    3.0000 	   21.0000 	    9.3000 
    1.8387 	   97.4660 	    3.0000 	   21.0000 	    9.3340 
    1.8845 	   97.5340 	    3.0000 	   21.0000 	    9.3680 
    1.9150 	   97.5980 	    3.0000 	   21.0000 	    9.4000 
    2.0371 	   97.6660 	    3.0000 	   21.0000 	    9.4340 
    1.8387 	   97.7320 	    3.0000 	   21.0000 	    9.4670 
    2.0218 	   97.7960 	    3.0000 	   21.0000 	    9.4990 
    1.9455 	   97.8600 	    3.0000 	   21.0000 	    9.5310 
    1.5183 	   97.9200 	    3.0000 	   21.0000 	    9.5610 
    1.8082 	   97.9820 	    3.0000 	   21.0000 	    9.5920 
    1.8082 	   98.0500 	    3.0000 	   21.0000 	    9.6260 
    1.6861 	   98.1200 	    3.0000 	   21.0000 	    9.6610 
    1.9150 	   98.2020 	    3.0000 	   21.0000 	    9.7020 
    1.8082 	   98.2720 	    3.0000 	   21.0000 	    9.7370 
    1.7624 	   98.3420 	    3.0000 	   21.0000 	    9.7720 
    1.7319 	   98.4120 	    3.0000 	   21.0000 	    9.8070 
    1.7929 	   98.4760 	    3.0000 	   21.0000 	    9.8390 
    1.8082 	   98.5420 	    3.0000 	   21.0000 	    9.8720 
    1.6403 	   98.6100 	    3.0000 	   21.0000 	    9.9060 
    1.8235 	   98.6700 	    3.0000 	   21.0000 	    9.9360 
    1.6861 	   98.7360 	    3.0000 	   21.0000 	    9.9690 
    1.8387 	   98.8020 	    3.0000 	   21.0000 	   10.0020 
    1.6861 	   98.8700 	    3.0000 	   21.0000 	   10.0360 
    1.8845 	   98.9420 	    3.0000 	   21.0000 	   10.0721 
    1.8387 	   99.0180 	    3.0000 	   21.0000 	   10.1101 
    1.6861 	   99.0880 	    3.0000 	   21.0000 	   10.1451 
    1.7624 	   99.1600 	    3.0000 	   21.0000 	   10.1811 
    1.8845 	   99.2320 	    3.0000 	   21.0000 	   10.2171 
    1.8082 	   99.3040 	    3.0000 	   21.0000 	   10.2531 
    1.7777 	   99.3760 	    3.0000 	   21.0000 	   10.2891 
    1.7166 	   99.4520 	    3.0000 	   21.0000 	   10.3261 
    1.6709 	   99.5200 	    3.0000 	   21.0000 	   10.3611 
    1.6251 	   99.5860 	    3.0000 	   21.0000 	   10.3941 
    1.8082 	   99.6540 	    3.0000 	   21.0000 	   10.4281 
    1.8692 	   99.7200 	    3.0000 	   21.0000 	   10.4611 
    1.7472 	   99.7860 	    3.0000 	   21.0000 	   10.4941 
    1.5793 	   99.8500 	    3.0000 	   21.0000 	   10.5261 
    1.5335 	   99.9140 	    3.0000 	   21.0000 	   10.5581 
    1.7624 	   99.9820 	    3.0000 	   21.0000 	   10.5921 
    1.5640 	  100.0560 	    3.0000 	   21.0000 	   10.6291 
    1.6709 	  100.1280 	    3.0000 	   21.0000 	   10.6651 
    1.6709 	  100.2020 	    3.0000 	   21.0000 	   10.7021 
    1.7166 	  100.2760 	    3.0000 	   21.0000 	   10.7391 
    1.6861 	  100.3560 	    3.0000 	   21.0000 	   10.7791 
    1.7166 	  100.4300 	    3.0000 	   21.0000 	   10.8161 
    1.5488 	  100.5020 	    3.0000 	   21.0000 	   10.8521 
    1.6251 	  100.5720 	    3.0000 	   21.0000 	   10.8871 
    1.7624 	  100.6500 	    3.0000 	   21.0000 	   10.9261 
    1.6251 	  100.7220 	    3.0000 	   21.0000 	   10.9621 
    1.6098 	  100.7920 	    3.0000 	   21.0000 	   10.9971 
    1.5946 	  100.8640 	    3.0000 	   21.0000 	   11.0331 
    1.6556 	  100.9340 	    3.0000 	   21.0000 	   11.0681 
    1.4725 	  101.0040 	    3.0000 	   21.0000 	   11.1031 
    1.6861 	  101.0780 	    3.0000 	   21.0000 	   11.1401 
    1.3809 	  101.1540 	    3.0000 	   21.0000 	   11.1781 
    1.6403 	  101.2260 	    3.0000 	   21.0000 	   11.2141 
    1.5183 	  101.3020 	    3.0000 	   21.0000 	   11.2521 
    1.5793 	  101.3680 	    3.0000 	   21.0000 	   11.2851 
    1.7319 	  101.4400 	    3.0000 	   21.0000 	   11.3211 
    1.5946 	  101.5080 	    3.0000 	   21.0000 	   11.3551 
    1.6556 	  101.5740 	    3.0000 	   21.0000 	   11.3881 
    1.7777 	  101.6420 	    3.0000 	   21.0000 	   11.4221 
    1.5335 	  101.7120 	    3.0000 	   21.0000 	   11.4571 
    1.5030 	  101.7760 	    3.0000 	   21.0000 	   11.4891 
    1.5488 	  101.8400 	    3.0000 	   21.0000 	   11.5211 
    1.6556 	  101.9020 	    3.0000 	   21.0000 	   11.5521 
    1.5488 	  101.9640 	    3.0000 	   21.0000 	   11.5831 
    1.5946 	  102.0320 	    3.0000 	   21.0000 	   11.6171 
    1.6251 	  102.1020 	    3.0000 	   21.0000 	   11.6521 
    1.3046 	  102.1720 	    3.0000 	   21.0000 	   11.6871 
    1.5335 	  102.2440 	    3.0000 	   21.0000 	   11.7231 
    1.1673 	  102.3160 	    3.0000 	   21.0000 	   11.7591 
    1.5183 	  102.3860 	    3.0000 	   21.0000 	   11.7941 
    1.5183 	  102.4580 	    3.0000 	   21.0000 	   11.8302 
    1.4572 	  102.5300 	    3.0000 	   21.0000 	   11.8662 
    1.3962 	  102.6000 	    3.0000 	   21.0000 	   11.9012 
    1.5335 	  102.6780 	    3.0000 	   21.0000 	   11.9402 
    1.4725 	  102.7500 	    3.0000 	   21.0000 	   11.9762 
    1.3809 	  102.8240 	    3.0000 	   21.0000 	   12.0132 
    1.0300 	  102.8960 	    3.0000 	   21.0000 	   12.0492 
    1.5640 	  102.9700 	    3.0000 	   21.0000 	   12.0862 
    1.3352 	  103.0440 	    3.0000 	   21.0000 	   12.1232 
    1.6251 	  103.1200 	    3.0000 	   21.0000 	   12.1612 
    1.4725 	  103.1900 	    3.0000 	   21.0000 	   12.1962 
    1.5793 	  103.2600 	    3.0000 	   21.0000 	   12.2312 
    1.3352 	  103.3320 	    3.0000 	   21.0000 	   12.2672 
    1.2741 	  103.4020 	    3.0000 	   21.0000 	   12.3022 
    1.2894 	  103.4720 	    3.0000 	   21.0000 	   12.3372 
    1.4420 	  103.5420 	    3.0000 	   21.0000 	   12.3722 
    1.4572 	  103.6080 	    3.0000 	   21.0000 	   12.4052 
    1.3046 	  103.6720 	    3.0000 	   21.0000 	   12.4372 
    1.4572 	  103.7360 	    3.0000 	   21.0000 	   12.4692 
    1.3962 	  103.8000 	    3.0000 	   21.0000 	   12.5012 
    1.3504 	  103.8640 	    3.0000 	   21.0000 	   12.5332 
    1.3809 	  103.9260 	    3.0000 	   21.0000 	   12.5642 
    1.4267 	  103.9880 	    3.0000 	   21.0000 	   12.5952 
    1.3809 	  104.0540 	    3.0000 	   21.0000 	   12.6282 
    1.2589 	  104.1260 	    3.0000 	   21.0000 	   12.6642 
    1.3352 	  104.2040 	    3.0000 	   21.0000 	   12.7032 
    1.1673 	  104.2760 	    3.0000 	   21.0000 	   12.7392 
    1.3657 	  104.3500 	    3.0000 	   21.0000 	   12.7752 
    1.3504 	  104.4180 	    3.0000 	   21.0000 	   12.8102 
    1.2894 	  104.4860 	    3.0000 	   21.0000 	   12.8442 
    1.3657 	  104.5520 	    3.0000 	   21.0000 	   12.8772 
    1.2741 	  104.6220 	    3.0000 	   21.0000 	   12.9122 
    1.0147 	  104.6920 	    3.0000 	   21.0000 	   12.9472 
    1.2741 	  104.7660 	    3.0000 	   21.0000 	   12.9842 
    1.2131 	  104.8360 	    3.0000 	   21.0000 	   13.0192 
    1.3504 	  104.9060 	    3.0000 	   21.0000 	   13.0542 
    1.3199 	  104.9820 	    3.0000 	   21.0000 	   13.0922 
    1.2589 	  105.0540 	    3.0000 	   21.0000 	   13.1282 
    1.3046 	  105.1240 	    3.0000 	   21.0000 	   13.1632 
    1.2131 	  105.2040 	    3.0000 	   21.0000 	   13.2032 
    1.3657 	  105.2740 	    3.0000 	   21.0000 	   13.2382 
    1.3352 	  105.3500 	    3.0000 	   21.0000 	   13.2762 
    1.2894 	  105.4180 	    3.0000 	   21.0000 	   13.3102 
    1.2741 	  105.4880 	    3.0000 	   21.0000 	   13.3452 
    1.3046 	  105.5560 	    3.0000 	   21.0000 	   13.3792 
    1.2131 	  105.6280 	    3.0000 	   21.0000 	   13.4152 
    1.1673 	  105.7000 	    3.0000 	   21.0000 	   13.4512 
    1.3199 	  105.7680 	    3.0000 	   21.0000 	   13.4852 
    1.1673 	  105.8380 	    3.0000 	   21.0000 	   13.5202 
    1.2284 	  105.9040 	    3.0000 	   21.0000 	   13.5532 
    1.2284 	  105.9680 	    3.0000 	   21.0000 	   13.5853 
    1.3504 	  106.0360 	    3.0000 	   21.0000 	   13.6193 
    1.0910 	  106.1020 	    3.0000 	   21.0000 	   13.6523 
    1.2131 	  106.1700 	    3.0000 	   21.0000 	   13.6863 
    1.2589 	  106.2420 	    3.0000 	   21.0000 	   13.7223 
    1.2284 	  106.3140 	    3.0000 	   21.0000 	   13.7583 
    1.0452 	  106.3860 	    3.0000 	   21.0000 	   13.7943 
    0.9842 	  106.4560 	    3.0000 	   21.0000 	   13.8293 
    1.1826 	  106.5300 	    3.0000 	   21.0000 	   13.8663 
    1.0605 	  106.6060 	    3.0000 	   21.0000 	   13.9043 
    1.2131 	  106.6820 	    3.0000 	   21.0000 	   13.9423 
    1.1063 	  106.7540 	    3.0000 	   21.0000 	   13.9783 
    1.0758 	  106.8220 	    3.0000 	   21.0000 	   14.0123 
    1.1215 	  106.8880 	    3.0000 	   21.0000 	   14.0453 
    1.0300 	  106.9600 	    3.0000 	   21.0000 	   14.0813 
    1.1368 	  107.0300 	    3.0000 	   21.0000 	   14.1163 
    0.9384 	  107.1020 	    3.0000 	   21.0000 	   14.1523 
    1.1826 	  107.1800 	    3.0000 	   21.0000 	   14.1913 
    1.0758 	  107.2560 	    3.0000 	   21.0000 	   14.2293 
    1.1521 	  107.3300 	    3.0000 	   21.0000 	   14.2663 
    1.1521 	  107.4040 	    3.0000 	   21.0000 	   14.3033 
    0.8927 	  107.4740 	    3.0000 	   21.0000 	   14.3383 
    1.1826 	  107.5460 	    3.0000 	   21.0000 	   14.3743 
    0.9689 	  107.6160 	    3.0000 	   21.0000 	   14.4093 
    0.9842 	  107.6920 	    3.0000 	   21.0000 	   14.4473 
    1.1063 	  107.7580 	    3.0000 	   21.0000 	   14.4803 
    0.9079 	  107.8220 	    3.0000 	   21.0000 	   14.5123 
    0.9689 	  107.8860 	    3.0000 	   21.0000 	   14.5443 
    1.1673 	  107.9480 	    3.0000 	   21.0000 	   14.5753 
    0.9842 	  108.0120 	    3.0000 	   21.0000 	   14.6073 
    0.9842 	  108.0820 	    3.0000 	   21.0000 	   14.6423 
    0.7553 	  108.1580 	    3.0000 	   21.0000 	   14.6793 
    0.9384 	  108.2260 	    3.0000 	   21.0000 	   14.7143 
    1.0605 	  108.2980 	    3.0000 	   21.0000 	   14.7503 
    1.1368 	  108.3720 	    3.0000 	   21.0000 	   14.7873 
    0.6180 	  108.4460 	    3.0000 	   21.0000 	   14.8243 
    1.0605 	  108.5180 	    3.0000 	   21.0000 	   14.8603 
    0.9689 	  108.5900 	    3.0000 	   21.0000 	   14.8953 
    1.1368 	  108.6600 	    3.0000 	   21.0000 	   14.9313 
    1.0605 	  108.7320 	    3.0000 	   21.0000 	   14.9673 
    0.8164 	  108.8060 	    3.0000 	   21.0000 	   15.0043 
    0.9384 	  108.8800 	    3.0000 	   21.0000 	   15.0413 
    0.7095 	  108.9520 	    3.0000 	   21.0000 	   15.0773 
    0.8621 	  109.0220 	    3.0000 	   21.0000 	   15.1123 
    0.9689 	  109.0960 	    3.0000 	   21.0000 	   15.1493 
    0.8927 	  109.1680 	    3.0000 	   21.0000 	   15.1853 
    1.0758 	  109.2400 	    3.0000 	   21.0000 	   15.2213 
    0.8316 	  109.3120 	    3.0000 	   21.0000 	   15.2573 
    1.0910 	  109.3840 	    3.0000 	   21.0000 	   15.2933 
    0.9232 	  109.4540 	    3.0000 	   21.0000 	   15.3284 
    0.8316 	  109.5240 	    3.0000 	   21.0000 	   15.3634 
    0.8621 	  109.5900 	    3.0000 	   21.0000 	   15.3964 
    0.9537 	  109.6560 	    3.0000 	   21.0000 	   15.4294 
    0.9842 	  109.7240 	    3.0000 	   21.0000 	   15.4634 
    0.9079 	  109.7880 	    3.0000 	   21.0000 	   15.4954 
    1.0452 	  109.8500 	    3.0000 	   21.0000 	   15.5264 
    0.8621 	  109.9140 	    3.0000 	   21.0000 	   15.5584 
    0.9537 	  109.9760 	    3.0000 	   21.0000 	   15.5894 
    0.9995 	  110.0380 	    3.0000 	   21.0000 	   15.6204 
    0.7553 	  110.1040 	    3.0000 	   21.0000 	   15.6534 
    0.8469 	  110.1840 	    3.0000 	   21.0000 	   15.6934 
    0.8621 	  110.2540 	    3.0000 	   21.0000 	   15.7284 
    0.8927 	  110.3280 	    3.0000 	   21.0000 	   15.7654 
    0.7401 	  110.4020 	    3.0000 	   21.0000 	   15.8024 
    0.8164 	  110.4720 	    3.0000 	   21.0000 	   15.8374 
    0.8774 	  110.5420 	    3.0000 	   21.0000 	   15.8724 
    0.8011 	  110.6180 	    3.0000 	   21.0000 	   15.9104 
    0.8469 	  110.6900 	    3.0000 	   21.0000 	   15.9464 
    0.6485 	  110.7640 	    3.0000 	   21.0000 	   15.9834 
    0.5722 	  110.8400 	    3.0000 	   21.0000 	   16.0214 
    0.7706 	  110.9120 	    3.0000 	   21.0000 	   16.0574 
    0.8011 	  110.9840 	    3.0000 	   21.0000 	   16.0934 
    0.6943 	  111.0540 	    3.0000 	   21.0000 	   16.1284 
    0.8164 	  111.1280 	    3.0000 	   21.0000 	   16.1654 
    0.9384 	  111.2040 	    3.0000 	   21.0000 	   16.2034 
    0.7095 	  111.2780 	    3.0000 	   21.0000 	   16.2404 
    0.7095 	  111.3500 	    3.0000 	   21.0000 	   16.2764 
    0.7858 	  111.4240 	    3.0000 	   21.0000 	   16.3134 
    0.5112 	  111.4960 	    3.0000 	   21.0000 	   16.3494 
    0.8011 	  111.5640 	    3.0000 	   21.0000 	   16.3834 
    0.6332 	  111.6340 	    3.0000 	   21.0000 	   16.4184 
    0.6027 	  111.7020 	    3.0000 	   21.0000 	   16.4524 
    0.6027 	  111.7700 	    3.0000 	   21.0000 	   16.4864 
    0.6485 	  111.8340 	    3.0000 	   21.0000 	   16.5184 
    0.8011 	  111.9020 	    3.0000 	   21.0000 	   16.5524 
    0.6332 	  111.9640 	    3.0000 	   21.0000 	   16.5834 
    0.7858 	  112.0280 	    3.0000 	   21.0000 	   16.6154 
    0.7858 	  112.0920 	    3.0000 	   21.0000 	   16.6474 
    0.5875 	  112.1640 	    3.0000 	   21.0000 	   16.6834 
    0.6332 	  112.2420 	    3.0000 	   21.0000 	   16.7224 
    0.8011 	  112.3200 	    3.0000 	   21.0000 	   16.7614 
    0.4959 	  112.3920 	    3.0000 	   21.0000 	   16.7974 
    0.6332 	  112.4660 	    3.0000 	   21.0000 	   16.8344 
    0.6027 	  112.5440 	    3.0000 	   21.0000 	   16.8734 
    0.6180 	  112.6140 	    3.0000 	   21.0000 	   16.9084 
    0.6332 	  112.6940 	    3.0000 	   21.0000 	   16.9484 
    0.6638 	  112.7660 	    3.0000 	   21.0000 	   16.9844 
    0.6332 	  112.8440 	    3.0000 	   21.0000 	   17.0234 
    0.5722 	  112.9220 	    3.0000 	   21.0000 	   17.0625 
    0.6180 	  112.9960 	    3.0000 	   21.0000 	   17.0995 
    0.5570 	  113.0700 	    3.0000 	   21.0000 	   17.1365 
    0.6943 	  113.1440 	    3.0000 	   21.0000 	   17.1735 
    0.5112 	  113.2180 	    3.0000 	   21.0000 	   17.2105 
    0.5417 	  113.2920 	    3.0000 	   21.0000 	   17.2475 
    0.1907 	  113.3660 	    3.0000 	   21.0000 	   17.2845 
    0.5570 	  113.4400 	    3.0000 	   21.0000 	   17.3215 
    0.4349 	  113.5080 	    3.0000 	   21.0000 	   17.3555 
    0.5722 	  113.5780 	    3.0000 	   21.0000 	   17.3905 
    0.6180 	  113.6500 	    3.0000 	   21.0000 	   17.4265 
    0.4349 	  113.7180 	    3.0000 	   21.0000 	   17.4605 
    0.4654 	  113.7880 	    3.0000 	   21.0000 	   17.4955 
    0.3128 	  113.8520 	    3.0000 	   21.0000 	   17.5275 
    0.5264 	  113.9180 	    3.0000 	   21.0000 	   17.5605 
    0.5722 	  113.9820 	    3.0000 	   21.0000 	   17.5925 
    0.3433 	  114.0500 	    3.0000 	   21.0000 	   17.6265 
    0.4501 	  114.1220 	    3.0000 	   21.0000 	   17.6625 
    0.4501 	  114.1960 	    3.0000 	   21.0000 	   17.6995 
    0.5570 	  114.2740 	    3.0000 	   21.0000 	   17.7385 
    0.4196 	  114.3500 	    3.0000 	   21.0000 	   17.7765 
    0.2976 	  114.4240 	    3.0000 	   21.0000 	   17.8135 
    0.4959 	  114.4960 	    3.0000 	   21.0000 	   17.8495 
    0.3586 	  114.5680 	    3.0000 	   21.0000 	   17.8855 
    0.4349 	  114.6400 	    3.0000 	   21.0000 	   17.9215 
    0.3433 	  114.7140 	    3.0000 	   21.0000 	   17.9585 
    0.1297 	  114.7860 	    3.0000 	   21.0000 	   17.9945 
    0.4807 	  114.8580 	    3.0000 	   21.0000 	   18.0305 
    0.4196 	  114.9320 	    3.0000 	   21.0000 	   18.0675 
    0.3433 	  115.0060 	    3.0000 	   21.0000 	   18.1045 
    0.4501 	  115.0800 	    3.0000 	   21.0000 	   18.1415 
    0.3891 	  115.1620 	    3.0000 	   21.0000 	   18.1825 
    0.4044 	  115.2320 	    3.0000 	   21.0000 	   18.2175 
    0.4044 	  115.3040 	    3.0000 	   21.0000 	   18.2535 
    0.4044 	  115.3780 	    3.0000 	   21.0000 	   18.2905 
    0.4654 	  115.4500 	    3.0000 	   21.0000 	   18.3265 
    0.3738 	  115.5260 	    3.0000 	   21.0000 	   18.3645 
    0.3738 	  115.5920 	    3.0000 	   21.0000 	   18.3975 
    0.4959 	  115.6600 	    3.0000 	   21.0000 	   18.4315 
    0.4349 	  115.7300 	    3.0000 	   21.0000 	   18.4665 
    0.2976 	  115.7960 	    3.0000 	   21.0000 	   18.4995 
    0.3891 	  115.8640 	    3.0000 	   21.0000 	   18.5335 
    0.4044 	  115.9280 	    3.0000 	   21.0000 	   18.5655 
    0.4044 	  115.9940 	    3.0000 	   21.0000 	   18.5985 
    0.3281 	  116.0640 	    3.0000 	   21.0000 	   18.6335 
    0.3586 	  116.1420 	    3.0000 	   21.0000 	   18.6725 
    0.3738 	  116.2140 	    3.0000 	   21.0000 	   18.7085 
    0.4044 	  116.2900 	    3.0000 	   21.0000 	   18.7465 
    0.2976 	  116.3640 	    3.0000 	   21.0000 	   18.7835 
    0.2670 	  116.4380 	    3.0000 	   21.0000 	   18.8205 
    0.2518 	  116.5120 	    3.0000 	   21.0000 	   18.8576 
    0.3128 	  116.5820 	    3.0000 	   21.0000 	   18.8926 
    0.3738 	  116.6580 	    3.0000 	   21.0000 	   18.9306 
    0.1755 	  116.7340 	    3.0000 	   21.0000 	   18.9686 
    0.3433 	  116.8080 	    3.0000 	   21.0000 	   19.0056 
    0.4654 	  116.8860 	    3.0000 	   21.0000 	   19.0446 
    0.3128 	  116.9600 	    3.0000 	   21.0000 	   19.0816 
    0.4196 	  117.0340 	    3.0000 	   21.0000 	   19.1186 
    0.3586 	  117.1100 	    3.0000 	   21.0000 	   19.1566 
    0.2823 	  117.1800 	    3.0000 	   21.0000 	   19.1916 
    0.2518 	  117.2580 	    3.0000 	   21.0000 	   19.2306 
    0.5112 	  117.3300 	    3.0000 	   21.0000 	   19.2666 
   -0.0992 	  117.4040 	    3.0000 	   21.0000 	   19.3036 
    0.2976 	  117.4780 	    3.0000 	   21.0000 	   19.3406 
    0.3738 	  117.5560 	    3.0000 	   21.0000 	   19.3796 
    0.2213 	  117.6240 	    3.0000 	   21.0000 	   19.4136 
    0.0229 	  117.7000 	    3.0000 	   21.0000 	   19.4516 
    0.2976 	  117.7720 	    3.0000 	   21.0000 	   19.4876 
    0.1907 	  117.8400 	    3.0000 	   21.0000 	   19.5216 
    0.2518 	  117.9060 	    3.0000 	   21.0000 	   19.5546 
    0.2518 	  117.9700 	    3.0000 	   21.0000 	   19.5866 
    0.4044 	  118.0360 	    3.0000 	   21.0000 	   19.6196 
    0.2670 	  118.1000 	    3.0000 	   21.0000 	   19.6516 
    0.2670 	  118.1660 	    3.0000 	   21.0000 	   19.6846 
    0.4501 	  118.2360 	    3.0000 	   21.0000 	   19.7196 
    0.2976 	  118.3160 	    3.0000 	   21.0000 	   19.7596 
    0.2518 	  118.3880 	    3.0000 	   21.0000 	   19.7956 
   -0.0229 	  118.4620 	    3.0000 	   21.0000 	   19.8326 
    0.3128 	  118.5380 	    3.0000 	   21.0000 	   19.8706 
    0.2976 	  118.6120 	    3.0000 	   21.0000 	   19.9076 
    0.3891 	  118.6880 	    3.0000 	   21.0000 	   19.9456 
    0.3128 	  118.7600 	    3.0000 	   21.0000 	   19.9816 
    0.2365 	  118.8320 	    3.0000 	   21.0000 	   20.0176 
    0.4349 	  118.9040 	    3.0000 	   21.0000 	   20.0536 
    0.2213 	  118.9820 	    3.0000 	   21.0000 	   20.0926 
    0.3738 	  119.0580 	    3.0000 	   21.0000 	   20.1306 
    0.2670 	  119.1320 	    3.0000 	   21.0000 	   20.1676 
    0.4196 	  119.2060 	    3.0000 	   21.0000 	   20.2046 
    0.3891 	  119.2800 	    3.0000 	   21.0000 	   20.2416 
    0.3281 	  119.3600 	    3.0000 	   21.0000 	   20.2816 
    0.3891 	  119.4340 	    3.0000 	   21.0000 	   20.3186 
    0.3281 	  119.5100 	    3.0000 	   21.0000 	   20.3566 
    0.3128 	  119.5820 	    3.0000 	   21.0000 	   20.3926 
    0.3128 	  119.6520 	    3.0000 	   21.0000 	   20.4276 
    0.3433 	  119.7220 	    3.0000 	   21.0000 	   20.4626 
    0.4959 	  119.7860 	    3.0000 	   21.0000 	   20.4946 
    0.2518 	  119.8520 	    3.0000 	   21.0000 	   20.5276 
    0.0229 	  119.9180 	    3.0000 	   21.0000 	   20.5606 
    0.0534 	  119.9820 	    3.0000 	   21.0000 	   20.5927 
    0.2213 	  120.0460 	    3.0000 	   21.0000 	   20.6247 
    0.2518 	  120.1140 	    3.0000 	   21.0000 	   20.6587 
    0.2365 	  120.1920 	    3.0000 	   21.0000 	   20.6977 
    0.3281 	  120.2700 	    3.0000 	   21.0000 	   20.7367 
    0.3281 	  120.3480 	    3.0000 	   21.0000 	   20.7757 
    0.3128 	  120.4240 	    3.0000 	   21.0000 	   20.8137 
    0.3586 	  120.5000 	    3.0000 	   21.0000 	   20.8517 
    0.2060 	  120.5720 	    3.0000 	   21.0000 	   20.8877 
    0.3586 	  120.6520 	    3.0000 	   21.0000 	   20.9277 
    0.2976 	  120.7240 	    3.0000 	   21.0000 	   20.9637 
    0.0076 	  120.8000 	    3.0000 	   21.0000 	   21.0017 
    0.2518 	  120.8720 	    3.0000 	   21.0000 	   21.0377 
    0.3128 	  120.9540 	    3.0000 	   21.0000 	   21.0787 
    0.3738 	  121.0240 	    3.0000 	   21.0000 	   21.1137 
    0.3281 	  121.1020 	    3.0000 	   21.0000 	   21.1527 
    0.4349 	  121.1780 	    3.0000 	   21.0000 	   21.1907 
    0.2365 	  121.2520 	    3.0000 	   21.0000 	   21.2277 
    0.4807 	  121.3260 	    3.0000 	   21.0000 	   21.2647 
    0.4044 	  121.4020 	    3.0000 	   21.0000 	   21.3027 
    0.1907 	  121.4760 	    3.0000 	   21.0000 	   21.3397 
    0.1755 	  121.5480 	    3.0000 	   21.0000 	   21.3757 
    0.4959 	  121.6180 	    3.0000 	   21.0000 	   21.4107 
